#  E [MeV]   Flux [# cm^{-2} s^{-1}  MeV^{-1}]
  3.0000e+04   2.85e-21
  3.1123e+04   2.74e-21
  3.2288e+04   2.64e-21
  3.3497e+04   2.54e-21
  3.4751e+04   2.44e-21
  3.6051e+04   2.35e-21
  3.7401e+04   2.26e-21
  3.8801e+04   2.17e-21
  4.0253e+04   2.08e-21
  4.1760e+04   2.00e-21
  4.3324e+04   1.92e-21
  4.4945e+04   1.84e-21
  4.6628e+04   1.77e-21
  4.8373e+04   1.70e-21
  5.0184e+04   1.63e-21
  5.2063e+04   1.56e-21
  5.4011e+04   1.50e-21
  5.6033e+04   1.44e-21
  5.8131e+04   1.38e-21
  6.0307e+04   1.32e-21
  6.2564e+04   1.26e-21
  6.4906e+04   1.21e-21
  6.7336e+04   1.16e-21
  6.9857e+04   1.11e-21
  7.2472e+04   1.06e-21
  7.5184e+04   1.02e-21
  7.7999e+04   9.72e-22
  8.0919e+04   9.29e-22
  8.3948e+04   8.88e-22
  8.7090e+04   8.49e-22
  9.0350e+04   8.11e-22
  9.3732e+04   7.75e-22
  9.7241e+04   7.40e-22
  1.0088e+05   7.07e-22
  1.0466e+05   6.74e-22
  1.0858e+05   6.44e-22
  1.1264e+05   6.14e-22
  1.1686e+05   5.86e-22
  1.2123e+05   5.58e-22
  1.2577e+05   5.32e-22
  1.3048e+05   5.07e-22
  1.3536e+05   4.83e-22
  1.4043e+05   4.60e-22
  1.4568e+05   4.38e-22
  1.5114e+05   4.17e-22
  1.5680e+05   3.96e-22
  1.6266e+05   3.77e-22
  1.6875e+05   3.58e-22
  1.7507e+05   3.41e-22
  1.8162e+05   3.24e-22
  1.8842e+05   3.07e-22
  1.9548e+05   2.92e-22
  2.0279e+05   2.77e-22
  2.1039e+05   2.63e-22
  2.1826e+05   2.49e-22
  2.2643e+05   2.36e-22
  2.3491e+05   2.24e-22
  2.4370e+05   2.12e-22
  2.5282e+05   2.01e-22
  2.6229e+05   1.90e-22
  2.7211e+05   1.80e-22
  2.8229e+05   1.70e-22
  2.9286e+05   1.61e-22
  3.0382e+05   1.52e-22
  3.1519e+05   1.44e-22
  3.2699e+05   1.36e-22
  3.3923e+05   1.28e-22
  3.5193e+05   1.21e-22
  3.6511e+05   1.14e-22
  3.7877e+05   1.08e-22
  3.9295e+05   1.02e-22
  4.0766e+05   9.58e-23
  4.2292e+05   9.02e-23
  4.3875e+05   8.49e-23
  4.5518e+05   8.00e-23
  4.7222e+05   7.52e-23
  4.8989e+05   7.07e-23
  5.0823e+05   6.65e-23
  5.2726e+05   6.26e-23
  5.4699e+05   5.88e-23
  5.6747e+05   5.52e-23
  5.8871e+05   5.19e-23
  6.1075e+05   4.87e-23
  6.3361e+05   4.57e-23
  6.5733e+05   4.29e-23
  6.8194e+05   4.02e-23
  7.0746e+05   3.77e-23
  7.3395e+05   3.54e-23
  7.6142e+05   3.32e-23
  7.8992e+05   3.11e-23
  8.1949e+05   2.92e-23
  8.5017e+05   2.74e-23
  8.8199e+05   2.57e-23
  9.1501e+05   2.41e-23
  9.4926e+05   2.26e-23
  9.8479e+05   2.12e-23
  1.0217e+06   1.99e-23
  1.0599e+06   1.87e-23
  1.0996e+06   1.75e-23
  1.1407e+06   1.64e-23
  1.1834e+06   1.54e-23
  1.2277e+06   1.45e-23
  1.2737e+06   1.36e-23
  1.3214e+06   1.28e-23
  1.3708e+06   1.20e-23
  1.4222e+06   1.13e-23
  1.4754e+06   1.06e-23
  1.5306e+06   9.95e-24
  1.5879e+06   9.36e-24
  1.6474e+06   8.81e-24
  1.7090e+06   8.28e-24
  1.7730e+06   7.79e-24
  1.8394e+06   7.34e-24
  1.9082e+06   6.91e-24
  1.9797e+06   6.51e-24
  2.0538e+06   6.13e-24
  2.1306e+06   5.78e-24
  2.2104e+06   5.45e-24
  2.2931e+06   5.14e-24
  2.3790e+06   4.85e-24
  2.4680e+06   4.57e-24
  2.5604e+06   4.32e-24
  2.6563e+06   4.08e-24
  2.7557e+06   3.85e-24
  2.8589e+06   3.64e-24
  2.9659e+06   3.44e-24
  3.0769e+06   3.25e-24
  3.1921e+06   3.07e-24
  3.3116e+06   2.90e-24
  3.4355e+06   2.74e-24
  3.5641e+06   2.59e-24
  3.6976e+06   2.45e-24
  3.8360e+06   2.32e-24
  3.9796e+06   2.19e-24
  4.1285e+06   2.07e-24
  4.2831e+06   1.96e-24
  4.4434e+06   1.85e-24
  4.6097e+06   1.75e-24
  4.7823e+06   1.66e-24
  4.9613e+06   1.56e-24
  5.1470e+06   1.48e-24
  5.3397e+06   1.40e-24
  5.5396e+06   1.32e-24
  5.7470e+06   1.24e-24
  5.9621e+06   1.17e-24
  6.1853e+06   1.11e-24
  6.4168e+06   1.04e-24
  6.6570e+06   9.81e-25
  6.9062e+06   9.23e-25
  7.1647e+06   8.67e-25
  7.4329e+06   8.14e-25
  7.7112e+06   7.63e-25
  7.9998e+06   7.14e-25
  8.2993e+06   6.67e-25
  8.6100e+06   6.23e-25
  8.9323e+06   5.80e-25
  9.2666e+06   5.39e-25
  9.6135e+06   5.00e-25
  9.9734e+06   4.63e-25
  1.0347e+07   4.27e-25
  1.0734e+07   3.93e-25
  1.1136e+07   3.61e-25
  1.1553e+07   3.30e-25
  1.1985e+07   3.00e-25
  1.2434e+07   2.72e-25
  1.2899e+07   2.45e-25
  1.3382e+07   2.20e-25
  1.3883e+07   1.96e-25
  1.4403e+07   1.73e-25
  1.4942e+07   1.52e-25
  1.5501e+07   1.33e-25
  1.6081e+07   1.15e-25
  1.6683e+07   9.78e-26
  1.7308e+07   8.25e-26
  1.7956e+07   6.87e-26
  1.8628e+07   5.63e-26
  1.9325e+07   4.53e-26
  2.0049e+07   3.58e-26
  2.0799e+07   2.76e-26
  2.1578e+07   2.08e-26
  2.2386e+07   1.51e-26
  2.3224e+07   1.07e-26
  2.4093e+07   7.22e-27
  2.4995e+07   4.66e-27
  2.5930e+07   2.84e-27
  2.6901e+07   1.63e-27
  2.7908e+07   8.62e-28
  2.8953e+07   4.17e-28
  3.0037e+07   1.81e-28
  3.1161e+07   6.89e-29
  3.2327e+07   2.24e-29
  3.3537e+07   6.04e-30
  3.4793e+07   1.29e-30
  3.6095e+07   2.08e-31
  3.7446e+07   2.37e-32
  3.8848e+07   1.75e-33
  4.0302e+07   7.57e-35
  4.1811e+07   1.66e-36
  4.3376e+07   1.55e-38
  4.5000e+07   4.91e-41
