#  E [MeV]   Flux [# cm^{-2} s^{-1}  MeV^{-1}]
  3.0000e+04   3.59e-25
  3.1051e+04   3.46e-25
  3.2139e+04   3.34e-25
  3.3266e+04   3.22e-25
  3.4432e+04   3.10e-25
  3.5638e+04   2.99e-25
  3.6887e+04   2.88e-25
  3.8180e+04   2.78e-25
  3.9518e+04   2.68e-25
  4.0903e+04   2.58e-25
  4.2336e+04   2.49e-25
  4.3820e+04   2.40e-25
  4.5355e+04   2.31e-25
  4.6945e+04   2.23e-25
  4.8590e+04   2.14e-25
  5.0293e+04   2.06e-25
  5.2055e+04   1.99e-25
  5.3879e+04   1.91e-25
  5.5767e+04   1.84e-25
  5.7722e+04   1.77e-25
  5.9745e+04   1.70e-25
  6.1838e+04   1.64e-25
  6.4005e+04   1.57e-25
  6.6248e+04   1.51e-25
  6.8570e+04   1.45e-25
  7.0973e+04   1.40e-25
  7.3460e+04   1.34e-25
  7.6034e+04   1.29e-25
  7.8699e+04   1.24e-25
  8.1457e+04   1.19e-25
  8.4311e+04   1.14e-25
  8.7266e+04   1.09e-25
  9.0324e+04   1.05e-25
  9.3490e+04   1.01e-25
  9.6766e+04   9.63e-26
  1.0016e+05   9.23e-26
  1.0367e+05   8.84e-26
  1.0730e+05   8.46e-26
  1.1106e+05   8.10e-26
  1.1495e+05   7.75e-26
  1.1898e+05   7.41e-26
  1.2315e+05   7.08e-26
  1.2747e+05   6.77e-26
  1.3193e+05   6.47e-26
  1.3656e+05   6.17e-26
  1.4134e+05   5.89e-26
  1.4629e+05   5.62e-26
  1.5142e+05   5.36e-26
  1.5673e+05   5.11e-26
  1.6222e+05   4.87e-26
  1.6790e+05   4.63e-26
  1.7379e+05   4.41e-26
  1.7988e+05   4.19e-26
  1.8618e+05   3.98e-26
  1.9271e+05   3.78e-26
  1.9946e+05   3.59e-26
  2.0645e+05   3.41e-26
  2.1369e+05   3.23e-26
  2.2117e+05   3.06e-26
  2.2892e+05   2.89e-26
  2.3695e+05   2.74e-26
  2.4525e+05   2.59e-26
  2.5385e+05   2.44e-26
  2.6274e+05   2.31e-26
  2.7195e+05   2.18e-26
  2.8148e+05   2.05e-26
  2.9134e+05   1.93e-26
  3.0155e+05   1.82e-26
  3.1212e+05   1.71e-26
  3.2306e+05   1.60e-26
  3.3438e+05   1.50e-26
  3.4610e+05   1.41e-26
  3.5823e+05   1.32e-26
  3.7078e+05   1.24e-26
  3.8377e+05   1.16e-26
  3.9722e+05   1.08e-26
  4.1114e+05   1.01e-26
  4.2555e+05   9.39e-27
  4.4046e+05   8.75e-27
  4.5590e+05   8.15e-27
  4.7188e+05   7.58e-27
  4.8841e+05   7.04e-27
  5.0553e+05   6.54e-27
  5.2324e+05   6.07e-27
  5.4158e+05   5.63e-27
  5.6056e+05   5.22e-27
  5.8020e+05   4.83e-27
  6.0054e+05   4.46e-27
  6.2158e+05   4.13e-27
  6.4337e+05   3.81e-27
  6.6591e+05   3.52e-27
  6.8925e+05   3.25e-27
  7.1340e+05   2.99e-27
  7.3840e+05   2.75e-27
  7.6428e+05   2.53e-27
  7.9106e+05   2.33e-27
  8.1878e+05   2.14e-27
  8.4748e+05   1.97e-27
  8.7718e+05   1.81e-27
  9.0792e+05   1.66e-27
  9.3973e+05   1.52e-27
  9.7267e+05   1.39e-27
  1.0068e+06   1.28e-27
  1.0420e+06   1.17e-27
  1.0785e+06   1.07e-27
  1.1163e+06   9.83e-28
  1.1555e+06   8.99e-28
  1.1960e+06   8.22e-28
  1.2379e+06   7.53e-28
  1.2813e+06   6.89e-28
  1.3262e+06   6.29e-28
  1.3726e+06   5.75e-28
  1.4207e+06   5.25e-28
  1.4705e+06   4.79e-28
  1.5220e+06   4.37e-28
  1.5754e+06   3.99e-28
  1.6306e+06   3.63e-28
  1.6877e+06   3.31e-28
  1.7469e+06   3.02e-28
  1.8081e+06   2.75e-28
  1.8715e+06   2.49e-28
  1.9370e+06   2.27e-28
  2.0049e+06   2.06e-28
  2.0752e+06   1.87e-28
  2.1479e+06   1.70e-28
  2.2232e+06   1.54e-28
  2.3011e+06   1.40e-28
  2.3817e+06   1.26e-28
  2.4652e+06   1.14e-28
  2.5516e+06   1.03e-28
  2.6410e+06   9.31e-29
  2.7336e+06   8.40e-29
  2.8294e+06   7.58e-29
  2.9285e+06   6.80e-29
  3.0311e+06   6.10e-29
  3.1374e+06   5.49e-29
  3.2473e+06   4.91e-29
  3.3611e+06   4.38e-29
  3.4789e+06   3.93e-29
  3.6008e+06   3.51e-29
  3.7270e+06   3.11e-29
  3.8576e+06   2.77e-29
  3.9928e+06   2.47e-29
  4.1327e+06   2.18e-29
  4.2775e+06   1.93e-29
  4.4274e+06   1.71e-29
  4.5826e+06   1.51e-29
  4.7432e+06   1.32e-29
  4.9094e+06   1.16e-29
  5.0815e+06   1.02e-29
  5.2595e+06   8.86e-30
  5.4438e+06   7.73e-30
  5.6346e+06   6.74e-30
  5.8321e+06   5.83e-30
  6.0365e+06   5.02e-30
  6.2480e+06   4.35e-30
  6.4670e+06   3.73e-30
  6.6936e+06   3.17e-30
  6.9282e+06   2.73e-30
  7.1709e+06   2.32e-30
  7.4222e+06   1.96e-30
  7.6823e+06   1.65e-30
  7.9516e+06   1.39e-30
  8.2302e+06   1.16e-30
  8.5186e+06   9.63e-31
  8.8172e+06   8.03e-31
  9.1262e+06   6.61e-31
  9.4460e+06   5.37e-31
  9.7770e+06   4.40e-31
  1.0120e+07   3.57e-31
  1.0474e+07   2.84e-31
  1.0841e+07   2.27e-31
  1.1221e+07   1.80e-31
  1.1614e+07   1.40e-31
  1.2022e+07   1.08e-31
  1.2443e+07   8.33e-32
  1.2879e+07   6.29e-32
  1.3330e+07   4.64e-32
  1.3797e+07   3.44e-32
  1.4281e+07   2.50e-32
  1.4781e+07   1.77e-32
  1.5299e+07   1.24e-32
  1.5835e+07   8.56e-33
  1.6390e+07   5.73e-33
  1.6965e+07   3.73e-33
  1.7559e+07   2.41e-33
  1.8175e+07   1.50e-33
  1.8812e+07   8.91e-34
  1.9471e+07   5.20e-34
  2.0153e+07   2.89e-34
  2.0859e+07   1.51e-34
  2.1590e+07   7.50e-35
  2.2347e+07   3.50e-35
  2.3130e+07   1.50e-35
  2.3941e+07   5.86e-36
  2.4780e+07   2.07e-36
  2.5648e+07   6.44e-37
  2.6547e+07   1.72e-37
  2.7477e+07   3.90e-38
  2.8440e+07   7.19e-39
