#  E [MeV]   Flux [# cm^{-2} s^{-1}  MeV^{-1}]
  3.0000e+04   1.41e-25
  3.0962e+04   1.36e-25
  3.1955e+04   1.31e-25
  3.2979e+04   1.26e-25
  3.4037e+04   1.22e-25
  3.5128e+04   1.17e-25
  3.6254e+04   1.13e-25
  3.7417e+04   1.09e-25
  3.8616e+04   1.05e-25
  3.9855e+04   1.01e-25
  4.1132e+04   9.77e-26
  4.2451e+04   9.41e-26
  4.3812e+04   9.07e-26
  4.5217e+04   8.74e-26
  4.6667e+04   8.42e-26
  4.8163e+04   8.12e-26
  4.9707e+04   7.82e-26
  5.1301e+04   7.53e-26
  5.2946e+04   7.26e-26
  5.4644e+04   6.99e-26
  5.6396e+04   6.74e-26
  5.8204e+04   6.49e-26
  6.0070e+04   6.25e-26
  6.1996e+04   6.02e-26
  6.3984e+04   5.80e-26
  6.6035e+04   5.59e-26
  6.8153e+04   5.39e-26
  7.0338e+04   5.19e-26
  7.2593e+04   5.00e-26
  7.4921e+04   4.82e-26
  7.7323e+04   4.64e-26
  7.9802e+04   4.48e-26
  8.2361e+04   4.31e-26
  8.5002e+04   4.16e-26
  8.7727e+04   4.01e-26
  9.0540e+04   3.86e-26
  9.3443e+04   3.72e-26
  9.6439e+04   3.59e-26
  9.9531e+04   3.46e-26
  1.0272e+05   3.34e-26
  1.0602e+05   3.22e-26
  1.0942e+05   3.11e-26
  1.1292e+05   3.00e-26
  1.1654e+05   2.90e-26
  1.2028e+05   2.80e-26
  1.2414e+05   2.70e-26
  1.2812e+05   2.61e-26
  1.3223e+05   2.52e-26
  1.3646e+05   2.44e-26
  1.4084e+05   2.36e-26
  1.4536e+05   2.28e-26
  1.5002e+05   2.20e-26
  1.5483e+05   2.13e-26
  1.5979e+05   2.06e-26
  1.6491e+05   2.00e-26
  1.7020e+05   1.93e-26
  1.7566e+05   1.87e-26
  1.8129e+05   1.81e-26
  1.8710e+05   1.75e-26
  1.9310e+05   1.70e-26
  1.9929e+05   1.64e-26
  2.0568e+05   1.59e-26
  2.1228e+05   1.54e-26
  2.1909e+05   1.50e-26
  2.2611e+05   1.45e-26
  2.3336e+05   1.41e-26
  2.4084e+05   1.37e-26
  2.4856e+05   1.33e-26
  2.5653e+05   1.29e-26
  2.6476e+05   1.25e-26
  2.7325e+05   1.21e-26
  2.8201e+05   1.18e-26
  2.9105e+05   1.15e-26
  3.0038e+05   1.11e-26
  3.1002e+05   1.08e-26
  3.1996e+05   1.05e-26
  3.3021e+05   1.02e-26
  3.4080e+05   9.89e-27
  3.5173e+05   9.61e-27
  3.6301e+05   9.34e-27
  3.7465e+05   9.07e-27
  3.8666e+05   8.81e-27
  3.9905e+05   8.56e-27
  4.1185e+05   8.32e-27
  4.2506e+05   8.08e-27
  4.3868e+05   7.85e-27
  4.5275e+05   7.63e-27
  4.6727e+05   7.41e-27
  4.8225e+05   7.19e-27
  4.9771e+05   6.99e-27
  5.1367e+05   6.78e-27
  5.3014e+05   6.59e-27
  5.4714e+05   6.40e-27
  5.6468e+05   6.21e-27
  5.8278e+05   6.03e-27
  6.0147e+05   5.85e-27
  6.2075e+05   5.68e-27
  6.4066e+05   5.51e-27
  6.6120e+05   5.35e-27
  6.8240e+05   5.19e-27
  7.0428e+05   5.03e-27
  7.2686e+05   4.89e-27
  7.5017e+05   4.74e-27
  7.7422e+05   4.60e-27
  7.9904e+05   4.46e-27
  8.2466e+05   4.32e-27
  8.5110e+05   4.19e-27
  8.7839e+05   4.07e-27
  9.0656e+05   3.94e-27
  9.3562e+05   3.82e-27
  9.6562e+05   3.70e-27
  9.9658e+05   3.59e-27
  1.0285e+06   3.48e-27
  1.0615e+06   3.37e-27
  1.0956e+06   3.27e-27
  1.1307e+06   3.16e-27
  1.1669e+06   3.06e-27
  1.2043e+06   2.97e-27
  1.2430e+06   2.87e-27
  1.2828e+06   2.78e-27
  1.3239e+06   2.69e-27
  1.3664e+06   2.61e-27
  1.4102e+06   2.52e-27
  1.4554e+06   2.44e-27
  1.5021e+06   2.36e-27
  1.5502e+06   2.29e-27
  1.6000e+06   2.21e-27
  1.6513e+06   2.14e-27
  1.7042e+06   2.06e-27
  1.7588e+06   1.99e-27
  1.8152e+06   1.92e-27
  1.8734e+06   1.86e-27
  1.9335e+06   1.79e-27
  1.9955e+06   1.73e-27
  2.0595e+06   1.66e-27
  2.1255e+06   1.60e-27
  2.1937e+06   1.54e-27
  2.2640e+06   1.49e-27
  2.3366e+06   1.43e-27
  2.4115e+06   1.37e-27
  2.4888e+06   1.32e-27
  2.5686e+06   1.27e-27
  2.6510e+06   1.21e-27
  2.7360e+06   1.16e-27
  2.8237e+06   1.11e-27
  2.9142e+06   1.06e-27
  3.0077e+06   1.02e-27
  3.1041e+06   9.72e-28
  3.2036e+06   9.25e-28
  3.3064e+06   8.81e-28
  3.4124e+06   8.38e-28
  3.5218e+06   7.95e-28
  3.6347e+06   7.54e-28
  3.7512e+06   7.14e-28
  3.8715e+06   6.76e-28
  3.9957e+06   6.38e-28
  4.1238e+06   6.01e-28
  4.2560e+06   5.66e-28
  4.3924e+06   5.32e-28
  4.5333e+06   4.99e-28
  4.6786e+06   4.67e-28
  4.8286e+06   4.37e-28
  4.9835e+06   4.07e-28
  5.1433e+06   3.79e-28
  5.3082e+06   3.52e-28
  5.4784e+06   3.27e-28
  5.6540e+06   3.02e-28
  5.8353e+06   2.78e-28
  6.0224e+06   2.56e-28
  6.2155e+06   2.35e-28
  6.4148e+06   2.14e-28
  6.6205e+06   1.95e-28
  6.8327e+06   1.77e-28
  7.0518e+06   1.60e-28
  7.2779e+06   1.44e-28
  7.5113e+06   1.29e-28
  7.7521e+06   1.16e-28
  8.0007e+06   1.03e-28
  8.2572e+06   9.14e-29
  8.5219e+06   8.05e-29
  8.7952e+06   7.08e-29
  9.0772e+06   6.21e-29
  9.3682e+06   5.40e-29
  9.6686e+06   4.66e-29
  9.9786e+06   4.02e-29
  1.0299e+07   3.45e-29
  1.0629e+07   2.92e-29
  1.0970e+07   2.46e-29
  1.1321e+07   2.08e-29
  1.1684e+07   1.74e-29
  1.2059e+07   1.43e-29
  1.2446e+07   1.18e-29
  1.2845e+07   9.75e-30
  1.3256e+07   7.94e-30
  1.3681e+07   6.36e-30
  1.4120e+07   5.21e-30
  1.4573e+07   4.23e-30
  1.5040e+07   3.38e-30
  1.5522e+07   2.70e-30
  1.6020e+07   2.22e-30
