#  E [MeV]   Flux [# cm^{-2} s^{-1}  MeV^{-1}]
  3.0000e+04   2.18e-24
  3.1051e+04   2.09e-24
  3.2139e+04   2.00e-24
  3.3266e+04   1.92e-24
  3.4432e+04   1.84e-24
  3.5638e+04   1.76e-24
  3.6887e+04   1.68e-24
  3.8180e+04   1.61e-24
  3.9518e+04   1.54e-24
  4.0903e+04   1.48e-24
  4.2336e+04   1.41e-24
  4.3820e+04   1.35e-24
  4.5355e+04   1.29e-24
  4.6945e+04   1.24e-24
  4.8590e+04   1.18e-24
  5.0293e+04   1.13e-24
  5.2055e+04   1.08e-24
  5.3879e+04   1.03e-24
  5.5767e+04   9.88e-25
  5.7722e+04   9.44e-25
  5.9745e+04   9.02e-25
  6.1838e+04   8.62e-25
  6.4005e+04   8.23e-25
  6.6248e+04   7.86e-25
  6.8570e+04   7.50e-25
  7.0973e+04   7.16e-25
  7.3460e+04   6.83e-25
  7.6034e+04   6.52e-25
  7.8699e+04   6.22e-25
  8.1457e+04   5.93e-25
  8.4311e+04   5.66e-25
  8.7266e+04   5.39e-25
  9.0324e+04   5.14e-25
  9.3490e+04   4.90e-25
  9.6766e+04   4.67e-25
  1.0016e+05   4.44e-25
  1.0367e+05   4.23e-25
  1.0730e+05   4.03e-25
  1.1106e+05   3.83e-25
  1.1495e+05   3.65e-25
  1.1898e+05   3.47e-25
  1.2315e+05   3.30e-25
  1.2747e+05   3.14e-25
  1.3193e+05   2.98e-25
  1.3656e+05   2.83e-25
  1.4134e+05   2.69e-25
  1.4629e+05   2.56e-25
  1.5142e+05   2.43e-25
  1.5673e+05   2.30e-25
  1.6222e+05   2.18e-25
  1.6790e+05   2.07e-25
  1.7379e+05   1.96e-25
  1.7988e+05   1.86e-25
  1.8618e+05   1.76e-25
  1.9271e+05   1.67e-25
  1.9946e+05   1.58e-25
  2.0645e+05   1.49e-25
  2.1369e+05   1.41e-25
  2.2117e+05   1.33e-25
  2.2892e+05   1.26e-25
  2.3695e+05   1.19e-25
  2.4525e+05   1.12e-25
  2.5385e+05   1.06e-25
  2.6274e+05   9.95e-26
  2.7195e+05   9.37e-26
  2.8148e+05   8.82e-26
  2.9134e+05   8.30e-26
  3.0155e+05   7.80e-26
  3.1212e+05   7.34e-26
  3.2306e+05   6.89e-26
  3.3438e+05   6.47e-26
  3.4610e+05   6.07e-26
  3.5823e+05   5.69e-26
  3.7078e+05   5.33e-26
  3.8377e+05   4.99e-26
  3.9722e+05   4.67e-26
  4.1114e+05   4.37e-26
  4.2555e+05   4.08e-26
  4.4046e+05   3.81e-26
  4.5590e+05   3.56e-26
  4.7188e+05   3.32e-26
  4.8841e+05   3.10e-26
  5.0553e+05   2.89e-26
  5.2324e+05   2.69e-26
  5.4158e+05   2.50e-26
  5.6056e+05   2.33e-26
  5.8020e+05   2.16e-26
  6.0054e+05   2.01e-26
  6.2158e+05   1.86e-26
  6.4337e+05   1.73e-26
  6.6591e+05   1.60e-26
  6.8925e+05   1.48e-26
  7.1340e+05   1.37e-26
  7.3840e+05   1.27e-26
  7.6428e+05   1.17e-26
  7.9106e+05   1.08e-26
  8.1878e+05   1.00e-26
  8.4748e+05   9.22e-27
  8.7718e+05   8.50e-27
  9.0792e+05   7.83e-27
  9.3973e+05   7.21e-27
  9.7267e+05   6.63e-27
  1.0068e+06   6.11e-27
  1.0420e+06   5.61e-27
  1.0785e+06   5.15e-27
  1.1163e+06   4.73e-27
  1.1555e+06   4.35e-27
  1.1960e+06   3.98e-27
  1.2379e+06   3.65e-27
  1.2813e+06   3.35e-27
  1.3262e+06   3.06e-27
  1.3726e+06   2.80e-27
  1.4207e+06   2.56e-27
  1.4705e+06   2.34e-27
  1.5220e+06   2.13e-27
  1.5754e+06   1.95e-27
  1.6306e+06   1.78e-27
  1.6877e+06   1.62e-27
  1.7469e+06   1.47e-27
  1.8081e+06   1.34e-27
  1.8715e+06   1.22e-27
  1.9370e+06   1.10e-27
  2.0049e+06   1.00e-27
  2.0752e+06   9.09e-28
  2.1479e+06   8.21e-28
  2.2232e+06   7.44e-28
  2.3011e+06   6.74e-28
  2.3817e+06   6.08e-28
  2.4652e+06   5.48e-28
  2.5516e+06   4.95e-28
  2.6410e+06   4.46e-28
  2.7336e+06   3.99e-28
  2.8294e+06   3.60e-28
  2.9285e+06   3.23e-28
  3.0311e+06   2.89e-28
  3.1374e+06   2.59e-28
  3.2473e+06   2.32e-28
  3.3611e+06   2.06e-28
  3.4789e+06   1.83e-28
  3.6008e+06   1.64e-28
  3.7270e+06   1.46e-28
  3.8576e+06   1.29e-28
  3.9928e+06   1.15e-28
  4.1327e+06   1.02e-28
  4.2775e+06   8.96e-29
  4.4274e+06   7.92e-29
  4.5826e+06   7.00e-29
  4.7432e+06   6.15e-29
  4.9094e+06   5.39e-29
  5.0815e+06   4.75e-29
  5.2595e+06   4.17e-29
  5.4438e+06   3.62e-29
  5.6346e+06   3.18e-29
  5.8321e+06   2.78e-29
  6.0365e+06   2.40e-29
  6.2480e+06   2.09e-29
  6.4670e+06   1.82e-29
  6.6936e+06   1.57e-29
  6.9282e+06   1.35e-29
  7.1709e+06   1.18e-29
  7.4222e+06   1.02e-29
  7.6823e+06   8.66e-30
  7.9516e+06   7.51e-30
  8.2302e+06   6.46e-30
  8.5186e+06   5.50e-30
  8.8172e+06   4.71e-30
  9.1262e+06   4.05e-30
  9.4460e+06   3.44e-30
  9.7770e+06   2.91e-30
  1.0120e+07   2.49e-30
  1.0474e+07   2.11e-30
  1.0841e+07   1.77e-30
  1.1221e+07   1.50e-30
  1.1614e+07   1.27e-30
  1.2022e+07   1.06e-30
  1.2443e+07   8.92e-31
  1.2879e+07   7.49e-31
  1.3330e+07   6.22e-31
  1.3797e+07   5.12e-31
  1.4281e+07   4.24e-31
  1.4781e+07   3.47e-31
  1.5299e+07   2.80e-31
  1.5835e+07   2.26e-31
  1.6390e+07   1.80e-31
  1.6965e+07   1.41e-31
  1.7559e+07   1.09e-31
  1.8175e+07   8.37e-32
  1.8812e+07   6.27e-32
  1.9471e+07   4.59e-32
  2.0153e+07   3.30e-32
  2.0859e+07   2.29e-32
  2.1590e+07   1.54e-32
  2.2347e+07   9.96e-33
  2.3130e+07   6.14e-33
  2.3941e+07   3.59e-33
  2.4780e+07   1.98e-33
  2.5648e+07   1.01e-33
  2.6547e+07   4.77e-34
  2.7477e+07   2.05e-34
  2.8440e+07   8.08e-35
