#  E [MeV]   Flux [# cm^{-2} s^{-1}  MeV^{-1}]
  3.0000e+04   1.57e-20
  3.1123e+04   1.51e-20
  3.2288e+04   1.45e-20
  3.3497e+04   1.39e-20
  3.4751e+04   1.34e-20
  3.6051e+04   1.29e-20
  3.7401e+04   1.24e-20
  3.8801e+04   1.19e-20
  4.0253e+04   1.14e-20
  4.1760e+04   1.10e-20
  4.3324e+04   1.06e-20
  4.4945e+04   1.01e-20
  4.6628e+04   9.75e-21
  4.8373e+04   9.37e-21
  5.0184e+04   9.00e-21
  5.2063e+04   8.64e-21
  5.4011e+04   8.30e-21
  5.6033e+04   7.97e-21
  5.8131e+04   7.65e-21
  6.0307e+04   7.35e-21
  6.2564e+04   7.05e-21
  6.4906e+04   6.77e-21
  6.7336e+04   6.50e-21
  6.9857e+04   6.23e-21
  7.2472e+04   5.98e-21
  7.5184e+04   5.73e-21
  7.7999e+04   5.50e-21
  8.0919e+04   5.27e-21
  8.3948e+04   5.05e-21
  8.7090e+04   4.84e-21
  9.0350e+04   4.64e-21
  9.3732e+04   4.44e-21
  9.7241e+04   4.25e-21
  1.0088e+05   4.07e-21
  1.0466e+05   3.90e-21
  1.0858e+05   3.73e-21
  1.1264e+05   3.56e-21
  1.1686e+05   3.41e-21
  1.2123e+05   3.26e-21
  1.2577e+05   3.11e-21
  1.3048e+05   2.97e-21
  1.3536e+05   2.84e-21
  1.4043e+05   2.71e-21
  1.4568e+05   2.59e-21
  1.5114e+05   2.47e-21
  1.5680e+05   2.35e-21
  1.6266e+05   2.24e-21
  1.6875e+05   2.13e-21
  1.7507e+05   2.03e-21
  1.8162e+05   1.93e-21
  1.8842e+05   1.84e-21
  1.9548e+05   1.74e-21
  2.0279e+05   1.66e-21
  2.1039e+05   1.57e-21
  2.1826e+05   1.49e-21
  2.2643e+05   1.41e-21
  2.3491e+05   1.34e-21
  2.4370e+05   1.27e-21
  2.5282e+05   1.20e-21
  2.6229e+05   1.13e-21
  2.7211e+05   1.07e-21
  2.8229e+05   1.01e-21
  2.9286e+05   9.51e-22
  3.0382e+05   8.96e-22
  3.1519e+05   8.43e-22
  3.2699e+05   7.92e-22
  3.3923e+05   7.44e-22
  3.5193e+05   6.98e-22
  3.6511e+05   6.54e-22
  3.7877e+05   6.13e-22
  3.9295e+05   5.73e-22
  4.0766e+05   5.36e-22
  4.2292e+05   5.01e-22
  4.3875e+05   4.67e-22
  4.5518e+05   4.35e-22
  4.7222e+05   4.05e-22
  4.8989e+05   3.77e-22
  5.0823e+05   3.50e-22
  5.2726e+05   3.25e-22
  5.4699e+05   3.02e-22
  5.6747e+05   2.80e-22
  5.8871e+05   2.59e-22
  6.1075e+05   2.40e-22
  6.3361e+05   2.22e-22
  6.5733e+05   2.05e-22
  6.8194e+05   1.89e-22
  7.0746e+05   1.74e-22
  7.3395e+05   1.61e-22
  7.6142e+05   1.48e-22
  7.8992e+05   1.37e-22
  8.1949e+05   1.26e-22
  8.5017e+05   1.16e-22
  8.8199e+05   1.07e-22
  9.1501e+05   9.81e-23
  9.4926e+05   9.02e-23
  9.8479e+05   8.30e-23
  1.0217e+06   7.62e-23
  1.0599e+06   7.00e-23
  1.0996e+06   6.43e-23
  1.1407e+06   5.90e-23
  1.1834e+06   5.41e-23
  1.2277e+06   4.97e-23
  1.2737e+06   4.56e-23
  1.3214e+06   4.18e-23
  1.3708e+06   3.83e-23
  1.4222e+06   3.51e-23
  1.4754e+06   3.22e-23
  1.5306e+06   2.95e-23
  1.5879e+06   2.70e-23
  1.6474e+06   2.47e-23
  1.7090e+06   2.26e-23
  1.7730e+06   2.07e-23
  1.8394e+06   1.89e-23
  1.9082e+06   1.73e-23
  1.9797e+06   1.58e-23
  2.0538e+06   1.44e-23
  2.1306e+06   1.32e-23
  2.2104e+06   1.20e-23
  2.2931e+06   1.09e-23
  2.3790e+06   9.94e-24
  2.4680e+06   9.05e-24
  2.5604e+06   8.22e-24
  2.6563e+06   7.45e-24
  2.7557e+06   6.76e-24
  2.8589e+06   6.13e-24
  2.9659e+06   5.53e-24
  3.0769e+06   5.01e-24
  3.1921e+06   4.52e-24
  3.3116e+06   4.07e-24
  3.4355e+06   3.66e-24
  3.5641e+06   3.29e-24
  3.6976e+06   2.95e-24
  3.8360e+06   2.64e-24
  3.9796e+06   2.36e-24
  4.1285e+06   2.11e-24
  4.2831e+06   1.87e-24
  4.4434e+06   1.67e-24
  4.6097e+06   1.48e-24
  4.7823e+06   1.30e-24
  4.9613e+06   1.15e-24
  5.1470e+06   1.01e-24
  5.3397e+06   8.85e-25
  5.5396e+06   7.77e-25
  5.7470e+06   6.78e-25
  5.9621e+06   5.87e-25
  6.1853e+06   5.11e-25
  6.4168e+06   4.41e-25
  6.6570e+06   3.78e-25
  6.9062e+06   3.25e-25
  7.1647e+06   2.78e-25
  7.4329e+06   2.35e-25
  7.7112e+06   1.99e-25
  7.9998e+06   1.68e-25
  8.2993e+06   1.40e-25
  8.6100e+06   1.17e-25
  8.9323e+06   9.68e-26
  9.2666e+06   7.92e-26
  9.6135e+06   6.45e-26
  9.9734e+06   5.24e-26
  1.0347e+07   4.19e-26
  1.0734e+07   3.32e-26
  1.1136e+07   2.63e-26
  1.1553e+07   2.04e-26
  1.1985e+07   1.56e-26
  1.2434e+07   1.19e-26
  1.2899e+07   8.93e-27
  1.3382e+07   6.52e-27
  1.3883e+07   4.76e-27
  1.4403e+07   3.38e-27
  1.4942e+07   2.33e-27
  1.5501e+07   1.60e-27
  1.6081e+07   1.06e-27
  1.6683e+07   6.73e-28
  1.7308e+07   4.20e-28
  1.7956e+07   2.52e-28
  1.8628e+07   1.43e-28
  1.9325e+07   7.82e-29
  2.0049e+07   4.05e-29
  2.0799e+07   1.95e-29
  2.1578e+07   8.75e-30
  2.2386e+07   3.65e-30
  2.3224e+07   1.37e-30
  2.4093e+07   4.59e-31
  2.4995e+07   1.37e-31
  2.5930e+07   3.49e-32
  2.6901e+07   7.41e-33
  2.7908e+07   1.30e-33
  2.8953e+07   1.76e-34
  3.0037e+07   1.75e-35
  3.1161e+07   1.25e-36
  3.2327e+07   5.79e-38
  3.3537e+07   1.57e-39
  3.4793e+07   2.33e-41
  3.6095e+07   1.57e-43
  3.7446e+07   4.06e-46
  3.8848e+07   3.22e-49
  4.0302e+07   5.77e-53
  4.1811e+07   1.59e-57
  4.3376e+07   4.13e-63
  4.5000e+07   2.46e-67
