#  E [MeV]   Flux [# cm^{-2} s^{-1}  MeV^{-1}]
  3.0000e+04   1.12e-26
  3.1141e+04   1.08e-26
  3.2326e+04   1.04e-26
  3.3556e+04   9.97e-27
  3.4832e+04   9.59e-27
  3.6157e+04   9.21e-27
  3.7533e+04   8.86e-27
  3.8961e+04   8.51e-27
  4.0443e+04   8.17e-27
  4.1982e+04   7.85e-27
  4.3579e+04   7.54e-27
  4.5237e+04   7.23e-27
  4.6958e+04   6.94e-27
  4.8744e+04   6.66e-27
  5.0598e+04   6.39e-27
  5.2523e+04   6.12e-27
  5.4521e+04   5.87e-27
  5.6596e+04   5.63e-27
  5.8749e+04   5.39e-27
  6.0984e+04   5.17e-27
  6.3304e+04   4.95e-27
  6.5712e+04   4.74e-27
  6.8212e+04   4.54e-27
  7.0807e+04   4.34e-27
  7.3500e+04   4.16e-27
  7.6297e+04   3.98e-27
  7.9199e+04   3.80e-27
  8.2212e+04   3.64e-27
  8.5340e+04   3.48e-27
  8.8586e+04   3.32e-27
  9.1956e+04   3.17e-27
  9.5455e+04   3.03e-27
  9.9086e+04   2.89e-27
  1.0286e+05   2.76e-27
  1.0677e+05   2.63e-27
  1.1083e+05   2.51e-27
  1.1505e+05   2.40e-27
  1.1942e+05   2.28e-27
  1.2397e+05   2.18e-27
  1.2868e+05   2.07e-27
  1.3358e+05   1.97e-27
  1.3866e+05   1.88e-27
  1.4394e+05   1.79e-27
  1.4941e+05   1.70e-27
  1.5509e+05   1.62e-27
  1.6100e+05   1.54e-27
  1.6712e+05   1.46e-27
  1.7348e+05   1.39e-27
  1.8008e+05   1.32e-27
  1.8693e+05   1.25e-27
  1.9404e+05   1.19e-27
  2.0142e+05   1.13e-27
  2.0908e+05   1.07e-27
  2.1704e+05   1.01e-27
  2.2529e+05   9.61e-28
  2.3387e+05   9.10e-28
  2.4276e+05   8.62e-28
  2.5200e+05   8.15e-28
  2.6158e+05   7.71e-28
  2.7154e+05   7.29e-28
  2.8187e+05   6.89e-28
  2.9259e+05   6.51e-28
  3.0372e+05   6.14e-28
  3.1527e+05   5.80e-28
  3.2727e+05   5.47e-28
  3.3972e+05   5.15e-28
  3.5264e+05   4.85e-28
  3.6606e+05   4.57e-28
  3.7998e+05   4.30e-28
  3.9444e+05   4.05e-28
  4.0945e+05   3.81e-28
  4.2502e+05   3.58e-28
  4.4119e+05   3.36e-28
  4.5798e+05   3.16e-28
  4.7540e+05   2.97e-28
  4.9348e+05   2.78e-28
  5.1226e+05   2.61e-28
  5.3175e+05   2.45e-28
  5.5198e+05   2.29e-28
  5.7297e+05   2.15e-28
  5.9477e+05   2.01e-28
  6.1740e+05   1.88e-28
  6.4089e+05   1.76e-28
  6.6527e+05   1.65e-28
  6.9058e+05   1.54e-28
  7.1685e+05   1.44e-28
  7.4412e+05   1.35e-28
  7.7243e+05   1.26e-28
  8.0181e+05   1.18e-28
  8.3232e+05   1.10e-28
  8.6398e+05   1.03e-28
  8.9685e+05   9.63e-29
  9.3097e+05   9.00e-29
  9.6638e+05   8.41e-29
  1.0031e+06   7.87e-29
  1.0413e+06   7.36e-29
  1.0809e+06   6.88e-29
  1.1220e+06   6.43e-29
  1.1647e+06   6.02e-29
  1.2090e+06   5.63e-29
  1.2550e+06   5.27e-29
  1.3028e+06   4.93e-29
  1.3523e+06   4.62e-29
  1.4038e+06   4.33e-29
  1.4572e+06   4.05e-29
  1.5126e+06   3.80e-29
  1.5702e+06   3.56e-29
  1.6299e+06   3.34e-29
  1.6919e+06   3.13e-29
  1.7563e+06   2.94e-29
  1.8231e+06   2.76e-29
  1.8925e+06   2.59e-29
  1.9645e+06   2.43e-29
  2.0392e+06   2.29e-29
  2.1168e+06   2.15e-29
  2.1973e+06   2.02e-29
  2.2809e+06   1.90e-29
  2.3677e+06   1.79e-29
  2.4577e+06   1.68e-29
  2.5512e+06   1.58e-29
  2.6483e+06   1.49e-29
  2.7490e+06   1.40e-29
  2.8536e+06   1.32e-29
  2.9622e+06   1.24e-29
  3.0749e+06   1.17e-29
  3.1918e+06   1.10e-29
  3.3133e+06   1.04e-29
  3.4393e+06   9.78e-30
  3.5702e+06   9.22e-30
  3.7060e+06   8.69e-30
  3.8470e+06   8.18e-30
  3.9933e+06   7.71e-30
  4.1452e+06   7.26e-30
  4.3029e+06   6.84e-30
  4.4666e+06   6.44e-30
  4.6366e+06   6.06e-30
  4.8129e+06   5.70e-30
  4.9960e+06   5.36e-30
  5.1861e+06   5.04e-30
  5.3834e+06   4.73e-30
  5.5882e+06   4.45e-30
  5.8008e+06   4.17e-30
  6.0215e+06   3.91e-30
  6.2506e+06   3.67e-30
  6.4883e+06   3.43e-30
  6.7352e+06   3.21e-30
  6.9914e+06   3.00e-30
  7.2574e+06   2.80e-30
  7.5335e+06   2.60e-30
  7.8201e+06   2.42e-30
  8.1176e+06   2.24e-30
  8.4264e+06   2.08e-30
  8.7470e+06   1.92e-30
  9.0797e+06   1.77e-30
  9.4251e+06   1.62e-30
  9.7837e+06   1.48e-30
  1.0156e+07   1.35e-30
  1.0542e+07   1.23e-30
  1.0943e+07   1.11e-30
  1.1360e+07   1.00e-30
  1.1792e+07   9.00e-31
  1.2240e+07   8.01e-31
  1.2706e+07   7.09e-31
  1.3189e+07   6.23e-31
  1.3691e+07   5.43e-31
  1.4212e+07   4.69e-31
  1.4753e+07   4.01e-31
  1.5314e+07   3.39e-31
  1.5897e+07   2.83e-31
  1.6501e+07   2.33e-31
  1.7129e+07   1.89e-31
  1.7781e+07   1.50e-31
  1.8457e+07   1.17e-31
  1.9159e+07   8.91e-32
  1.9888e+07   6.60e-32
  2.0645e+07   4.74e-32
  2.1430e+07   3.28e-32
  2.2245e+07   2.18e-32
  2.3092e+07   1.38e-32
  2.3970e+07   8.31e-33
  2.4882e+07   4.67e-33
  2.5829e+07   2.43e-33
  2.6811e+07   1.16e-33
  2.7831e+07   4.96e-34
  2.8890e+07   1.87e-34
  2.9989e+07   6.06e-35
  3.1130e+07   1.64e-35
  3.2314e+07   3.55e-36
  3.3544e+07   5.90e-37
  3.4820e+07   7.06e-38
  3.6144e+07   5.65e-39
  3.7519e+07   2.75e-40
  3.8947e+07   7.19e-42
  4.0428e+07   8.64e-44
  4.1966e+07   3.88e-46
  4.3563e+07   4.99e-49
  4.5220e+07   1.28e-52
  4.6941e+07   4.12e-57
  4.8726e+07   8.76e-63
  5.0580e+07   5.23e-70
