#  E [GeV]   # per interaction  [GeV^{-1}]
  3.0000e+01   2.94e-02
  3.1232e+01   2.82e-02
  3.2514e+01   2.71e-02
  3.3849e+01   2.61e-02
  3.5238e+01   2.50e-02
  3.6685e+01   2.41e-02
  3.8191e+01   2.31e-02
  3.9759e+01   2.22e-02
  4.1391e+01   2.13e-02
  4.3090e+01   2.04e-02
  4.4859e+01   1.96e-02
  4.6701e+01   1.88e-02
  4.8618e+01   1.81e-02
  5.0614e+01   1.73e-02
  5.2692e+01   1.66e-02
  5.4855e+01   1.59e-02
  5.7107e+01   1.52e-02
  5.9451e+01   1.46e-02
  6.1892e+01   1.40e-02
  6.4433e+01   1.34e-02
  6.7078e+01   1.28e-02
  6.9832e+01   1.23e-02
  7.2699e+01   1.17e-02
  7.5683e+01   1.12e-02
  7.8790e+01   1.07e-02
  8.2025e+01   1.03e-02
  8.5392e+01   9.80e-03
  8.8898e+01   9.36e-03
  9.2547e+01   8.94e-03
  9.6347e+01   8.54e-03
  1.0030e+02   8.15e-03
  1.0442e+02   7.78e-03
  1.0871e+02   7.42e-03
  1.1317e+02   7.07e-03
  1.1782e+02   6.74e-03
  1.2265e+02   6.42e-03
  1.2769e+02   6.12e-03
  1.3293e+02   5.82e-03
  1.3839e+02   5.54e-03
  1.4407e+02   5.27e-03
  1.4998e+02   5.01e-03
  1.5614e+02   4.76e-03
  1.6255e+02   4.52e-03
  1.6922e+02   4.29e-03
  1.7617e+02   4.07e-03
  1.8340e+02   3.86e-03
  1.9093e+02   3.66e-03
  1.9877e+02   3.47e-03
  2.0693e+02   3.28e-03
  2.1543e+02   3.11e-03
  2.2427e+02   2.94e-03
  2.3348e+02   2.78e-03
  2.4306e+02   2.62e-03
  2.5304e+02   2.47e-03
  2.6343e+02   2.33e-03
  2.7424e+02   2.20e-03
  2.8550e+02   2.07e-03
  2.9722e+02   1.95e-03
  3.0942e+02   1.83e-03
  3.2213e+02   1.72e-03
  3.3535e+02   1.61e-03
  3.4912e+02   1.51e-03
  3.6345e+02   1.42e-03
  3.7837e+02   1.32e-03
  3.9390e+02   1.24e-03
  4.1008e+02   1.16e-03
  4.2691e+02   1.08e-03
  4.4444e+02   1.01e-03
  4.6268e+02   9.41e-04
  4.8168e+02   8.77e-04
  5.0145e+02   8.17e-04
  5.2204e+02   7.61e-04
  5.4347e+02   7.08e-04
  5.6578e+02   6.58e-04
  5.8901e+02   6.12e-04
  6.1319e+02   5.69e-04
  6.3836e+02   5.29e-04
  6.6457e+02   4.92e-04
  6.9185e+02   4.57e-04
  7.2025e+02   4.25e-04
  7.4982e+02   3.95e-04
  7.8061e+02   3.68e-04
  8.1265e+02   3.42e-04
  8.4601e+02   3.19e-04
  8.8075e+02   2.97e-04
  9.1690e+02   2.77e-04
  9.5455e+02   2.59e-04
  9.9373e+02   2.42e-04
  1.0345e+03   2.26e-04
  1.0770e+03   2.11e-04
  1.1212e+03   1.98e-04
  1.1672e+03   1.86e-04
  1.2152e+03   1.75e-04
  1.2650e+03   1.64e-04
  1.3170e+03   1.55e-04
  1.3711e+03   1.46e-04
  1.4273e+03   1.38e-04
  1.4859e+03   1.30e-04
  1.5469e+03   1.23e-04
  1.6104e+03   1.16e-04
  1.6766e+03   1.10e-04
  1.7454e+03   1.05e-04
  1.8170e+03   9.95e-05
  1.8916e+03   9.46e-05
  1.9693e+03   9.01e-05
  2.0501e+03   8.58e-05
  2.1343e+03   8.19e-05
  2.2219e+03   7.81e-05
  2.3131e+03   7.46e-05
  2.4081e+03   7.12e-05
  2.5070e+03   6.80e-05
  2.6099e+03   6.50e-05
  2.7170e+03   6.21e-05
  2.8286e+03   5.93e-05
  2.9447e+03   5.66e-05
  3.0656e+03   5.41e-05
  3.1914e+03   5.16e-05
  3.3225e+03   4.92e-05
  3.4589e+03   4.69e-05
  3.6008e+03   4.46e-05
  3.7487e+03   4.24e-05
  3.9026e+03   4.03e-05
  4.0628e+03   3.82e-05
  4.2296e+03   3.61e-05
  4.4032e+03   3.41e-05
  4.5840e+03   3.22e-05
  4.7722e+03   3.03e-05
  4.9681e+03   2.84e-05
  5.1720e+03   2.66e-05
  5.3844e+03   2.48e-05
  5.6054e+03   2.31e-05
  5.8355e+03   2.14e-05
  6.0751e+03   1.97e-05
  6.3245e+03   1.81e-05
  6.5841e+03   1.66e-05
  6.8544e+03   1.51e-05
  7.1358e+03   1.36e-05
  7.4288e+03   1.23e-05
  7.7338e+03   1.09e-05
  8.0513e+03   9.70e-06
  8.3818e+03   8.53e-06
  8.7259e+03   7.42e-06
  9.0841e+03   6.40e-06
  9.4571e+03   5.46e-06
  9.8453e+03   4.60e-06
  1.0249e+04   3.83e-06
  1.0670e+04   3.14e-06
  1.1108e+04   2.53e-06
  1.1564e+04   2.01e-06
  1.2039e+04   1.56e-06
  1.2533e+04   1.19e-06
  1.3048e+04   8.80e-07
  1.3584e+04   6.35e-07
  1.4141e+04   4.44e-07
  1.4722e+04   3.00e-07
  1.5326e+04   1.95e-07
  1.5955e+04   1.21e-07
  1.6610e+04   7.15e-08
  1.7292e+04   3.98e-08
  1.8002e+04   2.08e-08
  1.8741e+04   1.01e-08
  1.9511e+04   4.47e-09
  2.0312e+04   1.80e-09
  2.1145e+04   6.46e-10
  2.2013e+04   2.03e-10
  2.2917e+04   5.46e-11
  2.3858e+04   1.23e-11
  2.4837e+04   2.22e-12
  2.5857e+04   3.14e-13
  2.6919e+04   3.28e-14
  2.8024e+04   2.41e-15
  2.9174e+04   1.15e-16
  3.0372e+04   3.30e-18
  3.1619e+04   5.08e-20
  3.2917e+04   3.67e-22
  3.4268e+04   1.05e-24
  3.5675e+04   9.48e-28
  3.7140e+04   2.07e-31
  3.8664e+04   7.68e-36
  4.0252e+04   3.04e-41
  4.1904e+04   6.20e-46
  4.3624e+04   5.53e-46
  4.5415e+04   4.89e-46
  4.7280e+04   4.32e-46
  4.9221e+04   3.81e-46
  5.1241e+04   3.33e-46
  5.3345e+04   2.91e-46
  5.5535e+04   2.53e-46
  5.7815e+04   2.18e-46
  6.0188e+04   1.88e-46
  6.2659e+04   1.62e-46
  6.5232e+04   1.37e-46
  6.7910e+04   1.18e-46
  7.0698e+04   1.02e-46
  7.3600e+04   8.61e-47
  7.6621e+04   7.53e-47
  7.9767e+04   6.57e-47
  8.3042e+04   5.68e-47
  8.6451e+04   5.19e-47
  9.0000e+04   4.73e-47
