#  E [MeV]   Flux [# cm^{-2} s^{-1}  MeV^{-1}]
  3.0000e+04   2.19e-25
  3.1141e+04   2.10e-25
  3.2326e+04   2.00e-25
  3.3556e+04   1.92e-25
  3.4832e+04   1.83e-25
  3.6157e+04   1.75e-25
  3.7533e+04   1.67e-25
  3.8961e+04   1.60e-25
  4.0443e+04   1.52e-25
  4.1982e+04   1.46e-25
  4.3579e+04   1.39e-25
  4.5237e+04   1.33e-25
  4.6958e+04   1.27e-25
  4.8744e+04   1.21e-25
  5.0598e+04   1.15e-25
  5.2523e+04   1.10e-25
  5.4521e+04   1.05e-25
  5.6596e+04   9.99e-26
  5.8749e+04   9.53e-26
  6.0984e+04   9.08e-26
  6.3304e+04   8.65e-26
  6.5712e+04   8.25e-26
  6.8212e+04   7.86e-26
  7.0807e+04   7.48e-26
  7.3500e+04   7.13e-26
  7.6297e+04   6.78e-26
  7.9199e+04   6.46e-26
  8.2212e+04   6.15e-26
  8.5340e+04   5.85e-26
  8.8586e+04   5.56e-26
  9.1956e+04   5.29e-26
  9.5455e+04   5.03e-26
  9.9086e+04   4.78e-26
  1.0286e+05   4.54e-26
  1.0677e+05   4.32e-26
  1.1083e+05   4.10e-26
  1.1505e+05   3.90e-26
  1.1942e+05   3.70e-26
  1.2397e+05   3.51e-26
  1.2868e+05   3.33e-26
  1.3358e+05   3.16e-26
  1.3866e+05   3.00e-26
  1.4394e+05   2.84e-26
  1.4941e+05   2.69e-26
  1.5509e+05   2.55e-26
  1.6100e+05   2.42e-26
  1.6712e+05   2.29e-26
  1.7348e+05   2.17e-26
  1.8008e+05   2.05e-26
  1.8693e+05   1.94e-26
  1.9404e+05   1.83e-26
  2.0142e+05   1.73e-26
  2.0908e+05   1.63e-26
  2.1704e+05   1.54e-26
  2.2529e+05   1.45e-26
  2.3387e+05   1.37e-26
  2.4276e+05   1.29e-26
  2.5200e+05   1.22e-26
  2.6158e+05   1.14e-26
  2.7154e+05   1.08e-26
  2.8187e+05   1.01e-26
  2.9259e+05   9.50e-27
  3.0372e+05   8.92e-27
  3.1527e+05   8.36e-27
  3.2727e+05   7.84e-27
  3.3972e+05   7.34e-27
  3.5264e+05   6.86e-27
  3.6606e+05   6.42e-27
  3.7998e+05   5.99e-27
  3.9444e+05   5.60e-27
  4.0945e+05   5.22e-27
  4.2502e+05   4.86e-27
  4.4119e+05   4.53e-27
  4.5798e+05   4.21e-27
  4.7540e+05   3.91e-27
  4.9348e+05   3.64e-27
  5.1226e+05   3.38e-27
  5.3175e+05   3.13e-27
  5.5198e+05   2.90e-27
  5.7297e+05   2.69e-27
  5.9477e+05   2.49e-27
  6.1740e+05   2.30e-27
  6.4089e+05   2.13e-27
  6.6527e+05   1.96e-27
  6.9058e+05   1.81e-27
  7.1685e+05   1.67e-27
  7.4412e+05   1.54e-27
  7.7243e+05   1.42e-27
  8.0181e+05   1.31e-27
  8.3232e+05   1.21e-27
  8.6398e+05   1.11e-27
  8.9685e+05   1.02e-27
  9.3097e+05   9.39e-28
  9.6638e+05   8.63e-28
  1.0031e+06   7.94e-28
  1.0413e+06   7.29e-28
  1.0809e+06   6.69e-28
  1.1220e+06   6.15e-28
  1.1647e+06   5.64e-28
  1.2090e+06   5.17e-28
  1.2550e+06   4.75e-28
  1.3028e+06   4.35e-28
  1.3523e+06   3.98e-28
  1.4038e+06   3.65e-28
  1.4572e+06   3.34e-28
  1.5126e+06   3.06e-28
  1.5702e+06   2.80e-28
  1.6299e+06   2.56e-28
  1.6919e+06   2.34e-28
  1.7563e+06   2.14e-28
  1.8231e+06   1.95e-28
  1.8925e+06   1.78e-28
  1.9645e+06   1.62e-28
  2.0392e+06   1.48e-28
  2.1168e+06   1.35e-28
  2.1973e+06   1.23e-28
  2.2809e+06   1.12e-28
  2.3677e+06   1.01e-28
  2.4577e+06   9.19e-29
  2.5512e+06   8.34e-29
  2.6483e+06   7.54e-29
  2.7490e+06   6.81e-29
  2.8536e+06   6.16e-29
  2.9622e+06   5.55e-29
  3.0749e+06   5.00e-29
  3.1918e+06   4.50e-29
  3.3133e+06   4.04e-29
  3.4393e+06   3.62e-29
  3.5702e+06   3.25e-29
  3.7060e+06   2.90e-29
  3.8470e+06   2.58e-29
  3.9933e+06   2.31e-29
  4.1452e+06   2.05e-29
  4.3029e+06   1.81e-29
  4.4666e+06   1.61e-29
  4.6366e+06   1.42e-29
  4.8129e+06   1.25e-29
  4.9960e+06   1.10e-29
  5.1861e+06   9.68e-30
  5.3834e+06   8.42e-30
  5.5882e+06   7.38e-30
  5.8008e+06   6.42e-30
  6.0215e+06   5.54e-30
  6.2506e+06   4.81e-30
  6.4883e+06   4.15e-30
  6.7352e+06   3.54e-30
  6.9914e+06   3.05e-30
  7.2574e+06   2.60e-30
  7.5335e+06   2.20e-30
  7.8201e+06   1.87e-30
  8.1176e+06   1.57e-30
  8.4264e+06   1.31e-30
  8.7470e+06   1.10e-30
  9.0797e+06   9.14e-31
  9.4251e+06   7.51e-31
  9.7837e+06   6.16e-31
  1.0156e+07   5.04e-31
  1.0542e+07   4.05e-31
  1.0943e+07   3.25e-31
  1.1360e+07   2.60e-31
  1.1792e+07   2.04e-31
  1.2240e+07   1.60e-31
  1.2706e+07   1.24e-31
  1.3189e+07   9.47e-32
  1.3691e+07   7.13e-32
  1.4212e+07   5.35e-32
  1.4753e+07   3.91e-32
  1.5314e+07   2.81e-32
  1.5897e+07   2.00e-32
  1.6501e+07   1.38e-32
  1.7129e+07   9.28e-33
  1.7781e+07   6.15e-33
  1.8457e+07   3.91e-33
  1.9159e+07   2.38e-33
  1.9888e+07   1.42e-33
  2.0645e+07   7.99e-34
  2.1430e+07   4.22e-34
  2.2245e+07   2.13e-34
  2.3092e+07   9.94e-35
  2.3970e+07   4.21e-35
  2.4882e+07   1.63e-35
  2.5829e+07   5.57e-36
  2.6811e+07   1.64e-36
  2.7831e+07   4.09e-37
  2.8890e+07   8.32e-38
  2.9989e+07   1.32e-38
  3.1130e+07   1.56e-39
  3.2314e+07   1.30e-40
  3.3544e+07   6.93e-42
  3.4820e+07   2.18e-43
  3.6144e+07   3.55e-45
  3.7519e+07   2.55e-47
  3.8947e+07   6.58e-50
  4.0428e+07   4.71e-53
  4.1966e+07   6.62e-57
  4.3563e+07   1.17e-61
  4.5220e+07   1.43e-67
  4.6941e+07   2.61e-72
  4.8726e+07   2.36e-72
  5.0580e+07   2.17e-72
