#  E [GeV]   # per interaction  [GeV^{-1}]
  3.0000e+01   5.29e-01
  3.1123e+01   5.08e-01
  3.2288e+01   4.88e-01
  3.3497e+01   4.69e-01
  3.4751e+01   4.51e-01
  3.6051e+01   4.33e-01
  3.7401e+01   4.16e-01
  3.8801e+01   3.99e-01
  4.0253e+01   3.83e-01
  4.1760e+01   3.68e-01
  4.3324e+01   3.54e-01
  4.4945e+01   3.40e-01
  4.6628e+01   3.26e-01
  4.8373e+01   3.13e-01
  5.0184e+01   3.00e-01
  5.2063e+01   2.88e-01
  5.4011e+01   2.77e-01
  5.6033e+01   2.65e-01
  5.8131e+01   2.55e-01
  6.0307e+01   2.44e-01
  6.2564e+01   2.34e-01
  6.4906e+01   2.25e-01
  6.7336e+01   2.16e-01
  6.9857e+01   2.07e-01
  7.2472e+01   1.98e-01
  7.5184e+01   1.90e-01
  7.7999e+01   1.82e-01
  8.0919e+01   1.74e-01
  8.3948e+01   1.67e-01
  8.7090e+01   1.60e-01
  9.0350e+01   1.53e-01
  9.3732e+01   1.47e-01
  9.7241e+01   1.40e-01
  1.0088e+02   1.34e-01
  1.0466e+02   1.29e-01
  1.0858e+02   1.23e-01
  1.1264e+02   1.18e-01
  1.1686e+02   1.13e-01
  1.2123e+02   1.08e-01
  1.2577e+02   1.03e-01
  1.3048e+02   9.82e-02
  1.3536e+02   9.38e-02
  1.4043e+02   8.96e-02
  1.4568e+02   8.55e-02
  1.5114e+02   8.16e-02
  1.5680e+02   7.78e-02
  1.6266e+02   7.42e-02
  1.6875e+02   7.07e-02
  1.7507e+02   6.74e-02
  1.8162e+02   6.41e-02
  1.8842e+02   6.11e-02
  1.9548e+02   5.81e-02
  2.0279e+02   5.53e-02
  2.1039e+02   5.25e-02
  2.1826e+02   4.99e-02
  2.2643e+02   4.74e-02
  2.3491e+02   4.50e-02
  2.4370e+02   4.27e-02
  2.5282e+02   4.05e-02
  2.6229e+02   3.84e-02
  2.7211e+02   3.64e-02
  2.8229e+02   3.44e-02
  2.9286e+02   3.26e-02
  3.0382e+02   3.08e-02
  3.1519e+02   2.91e-02
  3.2699e+02   2.75e-02
  3.3923e+02   2.59e-02
  3.5193e+02   2.44e-02
  3.6511e+02   2.30e-02
  3.7877e+02   2.17e-02
  3.9295e+02   2.04e-02
  4.0766e+02   1.92e-02
  4.2292e+02   1.80e-02
  4.3875e+02   1.69e-02
  4.5518e+02   1.59e-02
  4.7222e+02   1.49e-02
  4.8989e+02   1.40e-02
  5.0823e+02   1.31e-02
  5.2726e+02   1.22e-02
  5.4699e+02   1.15e-02
  5.6747e+02   1.07e-02
  5.8871e+02   1.00e-02
  6.1075e+02   9.33e-03
  6.3361e+02   8.71e-03
  6.5733e+02   8.12e-03
  6.8194e+02   7.56e-03
  7.0746e+02   7.05e-03
  7.3395e+02   6.56e-03
  7.6142e+02   6.10e-03
  7.8992e+02   5.68e-03
  8.1949e+02   5.28e-03
  8.5017e+02   4.91e-03
  8.8199e+02   4.56e-03
  9.1501e+02   4.24e-03
  9.4926e+02   3.93e-03
  9.8479e+02   3.65e-03
  1.0217e+03   3.39e-03
  1.0599e+03   3.14e-03
  1.0996e+03   2.91e-03
  1.1407e+03   2.70e-03
  1.1834e+03   2.50e-03
  1.2277e+03   2.32e-03
  1.2737e+03   2.15e-03
  1.3214e+03   1.99e-03
  1.3708e+03   1.84e-03
  1.4222e+03   1.70e-03
  1.4754e+03   1.57e-03
  1.5306e+03   1.46e-03
  1.5879e+03   1.35e-03
  1.6474e+03   1.24e-03
  1.7090e+03   1.15e-03
  1.7730e+03   1.06e-03
  1.8394e+03   9.80e-04
  1.9082e+03   9.04e-04
  1.9797e+03   8.34e-04
  2.0538e+03   7.70e-04
  2.1306e+03   7.09e-04
  2.2104e+03   6.53e-04
  2.2931e+03   6.01e-04
  2.3790e+03   5.52e-04
  2.4680e+03   5.08e-04
  2.5604e+03   4.66e-04
  2.6563e+03   4.28e-04
  2.7557e+03   3.92e-04
  2.8589e+03   3.60e-04
  2.9659e+03   3.29e-04
  3.0769e+03   3.01e-04
  3.1921e+03   2.75e-04
  3.3116e+03   2.51e-04
  3.4355e+03   2.29e-04
  3.5641e+03   2.09e-04
  3.6976e+03   1.90e-04
  3.8360e+03   1.72e-04
  3.9796e+03   1.57e-04
  4.1285e+03   1.42e-04
  4.2831e+03   1.28e-04
  4.4434e+03   1.16e-04
  4.6097e+03   1.05e-04
  4.7823e+03   9.39e-05
  4.9613e+03   8.45e-05
  5.1470e+03   7.58e-05
  5.3397e+03   6.77e-05
  5.5396e+03   6.05e-05
  5.7470e+03   5.40e-05
  5.9621e+03   4.80e-05
  6.1853e+03   4.25e-05
  6.4168e+03   3.77e-05
  6.6570e+03   3.32e-05
  6.9062e+03   2.92e-05
  7.1647e+03   2.57e-05
  7.4329e+03   2.24e-05
  7.7112e+03   1.95e-05
  7.9998e+03   1.70e-05
  8.2993e+03   1.47e-05
  8.6100e+03   1.26e-05
  8.9323e+03   1.09e-05
  9.2666e+03   9.26e-06
  9.6135e+03   7.82e-06
  9.9734e+03   6.63e-06
  1.0347e+04   5.56e-06
  1.0734e+04   4.62e-06
  1.1136e+04   3.83e-06
  1.1553e+04   3.16e-06
  1.1985e+04   2.56e-06
  1.2434e+04   2.07e-06
  1.2899e+04   1.67e-06
  1.3382e+04   1.31e-06
  1.3883e+04   1.03e-06
  1.4403e+04   7.99e-07
  1.4942e+04   6.08e-07
  1.5501e+04   4.55e-07
  1.6081e+04   3.38e-07
  1.6683e+04   2.45e-07
  1.7308e+04   1.72e-07
  1.7956e+04   1.20e-07
  1.8628e+04   8.09e-08
  1.9325e+04   5.22e-08
  2.0049e+04   3.33e-08
  2.0799e+04   2.02e-08
  2.1578e+04   1.16e-08
  2.2386e+04   6.47e-09
  2.3224e+04   3.37e-09
  2.4093e+04   1.62e-09
  2.4995e+04   7.34e-10
  2.5930e+04   3.03e-10
  2.6901e+04   1.10e-10
  2.7908e+04   3.58e-11
  2.8953e+04   1.01e-11
  3.0037e+04   2.31e-12
  3.1161e+04   4.32e-13
  3.2327e+04   6.25e-14
  3.3537e+04   6.46e-15
  3.4793e+04   4.56e-16
  3.6095e+04   2.04e-17
  3.7446e+04   4.96e-19
  3.8848e+04   5.76e-21
  4.0302e+04   2.71e-23
  4.1811e+04   3.92e-26
  4.3376e+04   1.27e-29
  4.5000e+04   6.55e-34
