#  E [MeV]   Flux [# cm^{-2} s^{-1}  MeV^{-1}]
  3.0000e+04   5.93e-25
  3.1141e+04   5.71e-25
  3.2326e+04   5.49e-25
  3.3556e+04   5.28e-25
  3.4832e+04   5.08e-25
  3.6157e+04   4.88e-25
  3.7533e+04   4.69e-25
  3.8961e+04   4.51e-25
  4.0443e+04   4.33e-25
  4.1982e+04   4.16e-25
  4.3579e+04   4.00e-25
  4.5237e+04   3.84e-25
  4.6958e+04   3.68e-25
  4.8744e+04   3.54e-25
  5.0598e+04   3.39e-25
  5.2523e+04   3.25e-25
  5.4521e+04   3.12e-25
  5.6596e+04   2.99e-25
  5.8749e+04   2.87e-25
  6.0984e+04   2.75e-25
  6.3304e+04   2.63e-25
  6.5712e+04   2.52e-25
  6.8212e+04   2.42e-25
  7.0807e+04   2.31e-25
  7.3500e+04   2.21e-25
  7.6297e+04   2.12e-25
  7.9199e+04   2.03e-25
  8.2212e+04   1.94e-25
  8.5340e+04   1.85e-25
  8.8586e+04   1.77e-25
  9.1956e+04   1.69e-25
  9.5455e+04   1.62e-25
  9.9086e+04   1.55e-25
  1.0286e+05   1.48e-25
  1.0677e+05   1.41e-25
  1.1083e+05   1.35e-25
  1.1505e+05   1.28e-25
  1.1942e+05   1.22e-25
  1.2397e+05   1.17e-25
  1.2868e+05   1.11e-25
  1.3358e+05   1.06e-25
  1.3866e+05   1.01e-25
  1.4394e+05   9.63e-26
  1.4941e+05   9.17e-26
  1.5509e+05   8.74e-26
  1.6100e+05   8.31e-26
  1.6712e+05   7.91e-26
  1.7348e+05   7.53e-26
  1.8008e+05   7.16e-26
  1.8693e+05   6.81e-26
  1.9404e+05   6.47e-26
  2.0142e+05   6.15e-26
  2.0908e+05   5.84e-26
  2.1704e+05   5.55e-26
  2.2529e+05   5.27e-26
  2.3387e+05   5.00e-26
  2.4276e+05   4.74e-26
  2.5200e+05   4.50e-26
  2.6158e+05   4.27e-26
  2.7154e+05   4.05e-26
  2.8187e+05   3.83e-26
  2.9259e+05   3.63e-26
  3.0372e+05   3.44e-26
  3.1527e+05   3.26e-26
  3.2727e+05   3.08e-26
  3.3972e+05   2.92e-26
  3.5264e+05   2.76e-26
  3.6606e+05   2.61e-26
  3.7998e+05   2.47e-26
  3.9444e+05   2.34e-26
  4.0945e+05   2.21e-26
  4.2502e+05   2.09e-26
  4.4119e+05   1.97e-26
  4.5798e+05   1.86e-26
  4.7540e+05   1.76e-26
  4.9348e+05   1.66e-26
  5.1226e+05   1.57e-26
  5.3175e+05   1.48e-26
  5.5198e+05   1.39e-26
  5.7297e+05   1.31e-26
  5.9477e+05   1.24e-26
  6.1740e+05   1.17e-26
  6.4089e+05   1.10e-26
  6.6527e+05   1.04e-26
  6.9058e+05   9.78e-27
  7.1685e+05   9.21e-27
  7.4412e+05   8.68e-27
  7.7243e+05   8.17e-27
  8.0181e+05   7.69e-27
  8.3232e+05   7.25e-27
  8.6398e+05   6.82e-27
  8.9685e+05   6.42e-27
  9.3097e+05   6.05e-27
  9.6638e+05   5.70e-27
  1.0031e+06   5.36e-27
  1.0413e+06   5.05e-27
  1.0809e+06   4.75e-27
  1.1220e+06   4.47e-27
  1.1647e+06   4.21e-27
  1.2090e+06   3.97e-27
  1.2550e+06   3.73e-27
  1.3028e+06   3.52e-27
  1.3523e+06   3.31e-27
  1.4038e+06   3.12e-27
  1.4572e+06   2.94e-27
  1.5126e+06   2.77e-27
  1.5702e+06   2.61e-27
  1.6299e+06   2.46e-27
  1.6919e+06   2.32e-27
  1.7563e+06   2.18e-27
  1.8231e+06   2.06e-27
  1.8925e+06   1.94e-27
  1.9645e+06   1.83e-27
  2.0392e+06   1.72e-27
  2.1168e+06   1.63e-27
  2.1973e+06   1.53e-27
  2.2809e+06   1.45e-27
  2.3677e+06   1.37e-27
  2.4577e+06   1.29e-27
  2.5512e+06   1.22e-27
  2.6483e+06   1.15e-27
  2.7490e+06   1.09e-27
  2.8536e+06   1.03e-27
  2.9622e+06   9.72e-28
  3.0749e+06   9.19e-28
  3.1918e+06   8.69e-28
  3.3133e+06   8.23e-28
  3.4393e+06   7.78e-28
  3.5702e+06   7.37e-28
  3.7060e+06   6.98e-28
  3.8470e+06   6.61e-28
  3.9933e+06   6.26e-28
  4.1452e+06   5.93e-28
  4.3029e+06   5.62e-28
  4.4666e+06   5.33e-28
  4.6366e+06   5.05e-28
  4.8129e+06   4.79e-28
  4.9960e+06   4.54e-28
  5.1861e+06   4.31e-28
  5.3834e+06   4.09e-28
  5.5882e+06   3.88e-28
  5.8008e+06   3.69e-28
  6.0215e+06   3.50e-28
  6.2506e+06   3.32e-28
  6.4883e+06   3.15e-28
  6.7352e+06   2.99e-28
  6.9914e+06   2.84e-28
  7.2574e+06   2.70e-28
  7.5335e+06   2.56e-28
  7.8201e+06   2.43e-28
  8.1176e+06   2.31e-28
  8.4264e+06   2.19e-28
  8.7470e+06   2.08e-28
  9.0797e+06   1.97e-28
  9.4251e+06   1.86e-28
  9.7837e+06   1.76e-28
  1.0156e+07   1.67e-28
  1.0542e+07   1.58e-28
  1.0943e+07   1.49e-28
  1.1360e+07   1.41e-28
  1.1792e+07   1.33e-28
  1.2240e+07   1.25e-28
  1.2706e+07   1.18e-28
  1.3189e+07   1.11e-28
  1.3691e+07   1.04e-28
  1.4212e+07   9.75e-29
  1.4753e+07   9.12e-29
  1.5314e+07   8.51e-29
  1.5897e+07   7.93e-29
  1.6501e+07   7.36e-29
  1.7129e+07   6.82e-29
  1.7781e+07   6.29e-29
  1.8457e+07   5.79e-29
  1.9159e+07   5.30e-29
  1.9888e+07   4.83e-29
  2.0645e+07   4.37e-29
  2.1430e+07   3.94e-29
  2.2245e+07   3.52e-29
  2.3092e+07   3.12e-29
  2.3970e+07   2.74e-29
  2.4882e+07   2.38e-29
  2.5829e+07   2.04e-29
  2.6811e+07   1.72e-29
  2.7831e+07   1.43e-29
  2.8890e+07   1.16e-29
  2.9989e+07   9.14e-30
  3.1130e+07   7.01e-30
  3.2314e+07   5.18e-30
  3.3544e+07   3.66e-30
  3.4820e+07   2.45e-30
  3.6144e+07   1.53e-30
  3.7519e+07   8.80e-31
  3.8947e+07   4.57e-31
  4.0428e+07   2.09e-31
  4.1966e+07   8.13e-32
  4.3563e+07   2.58e-32
  4.5220e+07   6.28e-33
  4.6941e+07   1.09e-33
  4.8726e+07   1.23e-34
  5.0580e+07   7.84e-36
