#  E [MeV]   Flux [# cm^{-2} s^{-1}  MeV^{-1}]
  3.0000e+04   2.84e-20
  3.1123e+04   2.72e-20
  3.2288e+04   2.60e-20
  3.3497e+04   2.48e-20
  3.4751e+04   2.37e-20
  3.6051e+04   2.26e-20
  3.7401e+04   2.16e-20
  3.8801e+04   2.07e-20
  4.0253e+04   1.97e-20
  4.1760e+04   1.88e-20
  4.3324e+04   1.80e-20
  4.4945e+04   1.71e-20
  4.6628e+04   1.64e-20
  4.8373e+04   1.56e-20
  5.0184e+04   1.49e-20
  5.2063e+04   1.42e-20
  5.4011e+04   1.35e-20
  5.6033e+04   1.29e-20
  5.8131e+04   1.23e-20
  6.0307e+04   1.17e-20
  6.2564e+04   1.12e-20
  6.4906e+04   1.06e-20
  6.7336e+04   1.01e-20
  6.9857e+04   9.66e-21
  7.2472e+04   9.20e-21
  7.5184e+04   8.76e-21
  7.7999e+04   8.34e-21
  8.0919e+04   7.94e-21
  8.3948e+04   7.56e-21
  8.7090e+04   7.19e-21
  9.0350e+04   6.84e-21
  9.3732e+04   6.51e-21
  9.7241e+04   6.19e-21
  1.0088e+05   5.89e-21
  1.0466e+05   5.60e-21
  1.0858e+05   5.32e-21
  1.1264e+05   5.06e-21
  1.1686e+05   4.81e-21
  1.2123e+05   4.57e-21
  1.2577e+05   4.34e-21
  1.3048e+05   4.12e-21
  1.3536e+05   3.91e-21
  1.4043e+05   3.71e-21
  1.4568e+05   3.53e-21
  1.5114e+05   3.34e-21
  1.5680e+05   3.17e-21
  1.6266e+05   3.01e-21
  1.6875e+05   2.85e-21
  1.7507e+05   2.70e-21
  1.8162e+05   2.56e-21
  1.8842e+05   2.43e-21
  1.9548e+05   2.30e-21
  2.0279e+05   2.18e-21
  2.1039e+05   2.06e-21
  2.1826e+05   1.95e-21
  2.2643e+05   1.84e-21
  2.3491e+05   1.74e-21
  2.4370e+05   1.65e-21
  2.5282e+05   1.55e-21
  2.6229e+05   1.47e-21
  2.7211e+05   1.38e-21
  2.8229e+05   1.31e-21
  2.9286e+05   1.23e-21
  3.0382e+05   1.16e-21
  3.1519e+05   1.09e-21
  3.2699e+05   1.03e-21
  3.3923e+05   9.65e-22
  3.5193e+05   9.07e-22
  3.6511e+05   8.52e-22
  3.7877e+05   7.99e-22
  3.9295e+05   7.49e-22
  4.0766e+05   7.02e-22
  4.2292e+05   6.57e-22
  4.3875e+05   6.15e-22
  4.5518e+05   5.75e-22
  4.7222e+05   5.37e-22
  4.8989e+05   5.01e-22
  5.0823e+05   4.67e-22
  5.2726e+05   4.35e-22
  5.4699e+05   4.05e-22
  5.6747e+05   3.76e-22
  5.8871e+05   3.49e-22
  6.1075e+05   3.24e-22
  6.3361e+05   3.01e-22
  6.5733e+05   2.79e-22
  6.8194e+05   2.58e-22
  7.0746e+05   2.40e-22
  7.3395e+05   2.22e-22
  7.6142e+05   2.05e-22
  7.8992e+05   1.90e-22
  8.1949e+05   1.76e-22
  8.5017e+05   1.63e-22
  8.8199e+05   1.51e-22
  9.1501e+05   1.39e-22
  9.4926e+05   1.29e-22
  9.8479e+05   1.19e-22
  1.0217e+06   1.10e-22
  1.0599e+06   1.02e-22
  1.0996e+06   9.38e-23
  1.1407e+06   8.66e-23
  1.1834e+06   7.99e-23
  1.2277e+06   7.36e-23
  1.2737e+06   6.79e-23
  1.3214e+06   6.25e-23
  1.3708e+06   5.76e-23
  1.4222e+06   5.30e-23
  1.4754e+06   4.88e-23
  1.5306e+06   4.49e-23
  1.5879e+06   4.13e-23
  1.6474e+06   3.79e-23
  1.7090e+06   3.48e-23
  1.7730e+06   3.20e-23
  1.8394e+06   2.93e-23
  1.9082e+06   2.69e-23
  1.9797e+06   2.46e-23
  2.0538e+06   2.26e-23
  2.1306e+06   2.06e-23
  2.2104e+06   1.89e-23
  2.2931e+06   1.72e-23
  2.3790e+06   1.57e-23
  2.4680e+06   1.43e-23
  2.5604e+06   1.30e-23
  2.6563e+06   1.18e-23
  2.7557e+06   1.07e-23
  2.8589e+06   9.74e-24
  2.9659e+06   8.81e-24
  3.0769e+06   7.96e-24
  3.1921e+06   7.20e-24
  3.3116e+06   6.48e-24
  3.4355e+06   5.82e-24
  3.5641e+06   5.24e-24
  3.6976e+06   4.70e-24
  3.8360e+06   4.19e-24
  3.9796e+06   3.76e-24
  4.1285e+06   3.35e-24
  4.2831e+06   2.97e-24
  4.4434e+06   2.64e-24
  4.6097e+06   2.34e-24
  4.7823e+06   2.05e-24
  4.9613e+06   1.81e-24
  5.1470e+06   1.59e-24
  5.3397e+06   1.39e-24
  5.5396e+06   1.21e-24
  5.7470e+06   1.06e-24
  5.9621e+06   9.15e-25
  6.1853e+06   7.92e-25
  6.4168e+06   6.85e-25
  6.6570e+06   5.86e-25
  6.9062e+06   5.02e-25
  7.1647e+06   4.29e-25
  7.4329e+06   3.63e-25
  7.7112e+06   3.06e-25
  7.9998e+06   2.59e-25
  8.2993e+06   2.17e-25
  8.6100e+06   1.80e-25
  8.9323e+06   1.50e-25
  9.2666e+06   1.23e-25
  9.6135e+06   1.00e-25
  9.9734e+06   8.23e-26
  1.0347e+07   6.66e-26
  1.0734e+07   5.28e-26
  1.1136e+07   4.25e-26
  1.1553e+07   3.36e-26
  1.1985e+07   2.60e-26
  1.2434e+07   2.03e-26
  1.2899e+07   1.56e-26
  1.3382e+07   1.17e-26
  1.3883e+07   8.83e-27
  1.4403e+07   6.55e-27
  1.4942e+07   4.73e-27
  1.5501e+07   3.38e-27
  1.6081e+07   2.39e-27
  1.6683e+07   1.63e-27
  1.7308e+07   1.09e-27
  1.7956e+07   7.23e-28
  1.8628e+07   4.58e-28
  1.9325e+07   2.80e-28
  2.0049e+07   1.68e-28
  2.0799e+07   9.52e-29
  2.1578e+07   5.09e-29
  2.2386e+07   2.64e-29
  2.3224e+07   1.27e-29
  2.4093e+07   5.54e-30
  2.4995e+07   2.27e-30
  2.5930e+07   8.29e-31
  2.6901e+07   2.63e-31
  2.7908e+07   7.33e-32
  2.8953e+07   1.70e-32
  3.0037e+07   3.15e-33
  3.1161e+07   4.52e-34
  3.2327e+07   4.74e-35
  3.3537e+07   3.35e-36
  3.4793e+07   1.48e-37
  3.6095e+07   3.67e-39
  3.7446e+07   4.40e-41
  3.8848e+07   2.14e-43
  4.0302e+07   3.38e-46
  4.1811e+07   1.28e-49
  4.3376e+07   8.03e-54
  4.5000e+07   5.03e-59
