#  E [MeV]   Flux [# cm^{-2} s^{-1}  MeV^{-1}]
  3.0000e+04   3.32e-25
  3.1141e+04   3.18e-25
  3.2326e+04   3.05e-25
  3.3556e+04   2.93e-25
  3.4832e+04   2.81e-25
  3.6157e+04   2.69e-25
  3.7533e+04   2.58e-25
  3.8961e+04   2.48e-25
  4.0443e+04   2.37e-25
  4.1982e+04   2.28e-25
  4.3579e+04   2.18e-25
  4.5237e+04   2.09e-25
  4.6958e+04   2.00e-25
  4.8744e+04   1.92e-25
  5.0598e+04   1.84e-25
  5.2523e+04   1.76e-25
  5.4521e+04   1.69e-25
  5.6596e+04   1.62e-25
  5.8749e+04   1.55e-25
  6.0984e+04   1.48e-25
  6.3304e+04   1.42e-25
  6.5712e+04   1.36e-25
  6.8212e+04   1.30e-25
  7.0807e+04   1.24e-25
  7.3500e+04   1.19e-25
  7.6297e+04   1.14e-25
  7.9199e+04   1.09e-25
  8.2212e+04   1.04e-25
  8.5340e+04   9.96e-26
  8.8586e+04   9.52e-26
  9.1956e+04   9.09e-26
  9.5455e+04   8.69e-26
  9.9086e+04   8.30e-26
  1.0286e+05   7.93e-26
  1.0677e+05   7.57e-26
  1.1083e+05   7.22e-26
  1.1505e+05   6.89e-26
  1.1942e+05   6.58e-26
  1.2397e+05   6.27e-26
  1.2868e+05   5.98e-26
  1.3358e+05   5.70e-26
  1.3866e+05   5.43e-26
  1.4394e+05   5.17e-26
  1.4941e+05   4.92e-26
  1.5509e+05   4.69e-26
  1.6100e+05   4.46e-26
  1.6712e+05   4.24e-26
  1.7348e+05   4.03e-26
  1.8008e+05   3.82e-26
  1.8693e+05   3.63e-26
  1.9404e+05   3.44e-26
  2.0142e+05   3.27e-26
  2.0908e+05   3.09e-26
  2.1704e+05   2.93e-26
  2.2529e+05   2.77e-26
  2.3387e+05   2.62e-26
  2.4276e+05   2.48e-26
  2.5200e+05   2.34e-26
  2.6158e+05   2.21e-26
  2.7154e+05   2.09e-26
  2.8187e+05   1.97e-26
  2.9259e+05   1.86e-26
  3.0372e+05   1.75e-26
  3.1527e+05   1.64e-26
  3.2727e+05   1.54e-26
  3.3972e+05   1.45e-26
  3.5264e+05   1.36e-26
  3.6606e+05   1.27e-26
  3.7998e+05   1.19e-26
  3.9444e+05   1.11e-26
  4.0945e+05   1.04e-26
  4.2502e+05   9.70e-27
  4.4119e+05   9.05e-27
  4.5798e+05   8.43e-27
  4.7540e+05   7.85e-27
  4.9348e+05   7.30e-27
  5.1226e+05   6.78e-27
  5.3175e+05   6.30e-27
  5.5198e+05   5.84e-27
  5.7297e+05   5.42e-27
  5.9477e+05   5.02e-27
  6.1740e+05   4.65e-27
  6.4089e+05   4.30e-27
  6.6527e+05   3.97e-27
  6.9058e+05   3.67e-27
  7.1685e+05   3.39e-27
  7.4412e+05   3.12e-27
  7.7243e+05   2.88e-27
  8.0181e+05   2.66e-27
  8.3232e+05   2.45e-27
  8.6398e+05   2.26e-27
  8.9685e+05   2.08e-27
  9.3097e+05   1.91e-27
  9.6638e+05   1.76e-27
  1.0031e+06   1.62e-27
  1.0413e+06   1.49e-27
  1.0809e+06   1.38e-27
  1.1220e+06   1.27e-27
  1.1647e+06   1.16e-27
  1.2090e+06   1.07e-27
  1.2550e+06   9.86e-28
  1.3028e+06   9.07e-28
  1.3523e+06   8.34e-28
  1.4038e+06   7.67e-28
  1.4572e+06   7.05e-28
  1.5126e+06   6.48e-28
  1.5702e+06   5.97e-28
  1.6299e+06   5.48e-28
  1.6919e+06   5.04e-28
  1.7563e+06   4.63e-28
  1.8231e+06   4.26e-28
  1.8925e+06   3.91e-28
  1.9645e+06   3.59e-28
  2.0392e+06   3.30e-28
  2.1168e+06   3.03e-28
  2.1973e+06   2.78e-28
  2.2809e+06   2.55e-28
  2.3677e+06   2.33e-28
  2.4577e+06   2.14e-28
  2.5512e+06   1.96e-28
  2.6483e+06   1.79e-28
  2.7490e+06   1.63e-28
  2.8536e+06   1.49e-28
  2.9622e+06   1.36e-28
  3.0749e+06   1.24e-28
  3.1918e+06   1.13e-28
  3.3133e+06   1.02e-28
  3.4393e+06   9.29e-29
  3.5702e+06   8.42e-29
  3.7060e+06   7.62e-29
  3.8470e+06   6.89e-29
  3.9933e+06   6.22e-29
  4.1452e+06   5.59e-29
  4.3029e+06   5.03e-29
  4.4666e+06   4.52e-29
  4.6366e+06   4.04e-29
  4.8129e+06   3.61e-29
  4.9960e+06   3.22e-29
  5.1861e+06   2.86e-29
  5.3834e+06   2.54e-29
  5.5882e+06   2.25e-29
  5.8008e+06   1.98e-29
  6.0215e+06   1.74e-29
  6.2506e+06   1.53e-29
  6.4883e+06   1.33e-29
  6.7352e+06   1.16e-29
  6.9914e+06   1.00e-29
  7.2574e+06   8.67e-30
  7.5335e+06   7.43e-30
  7.8201e+06   6.37e-30
  8.1176e+06   5.42e-30
  8.4264e+06   4.57e-30
  8.7470e+06   3.86e-30
  9.0797e+06   3.22e-30
  9.4251e+06   2.66e-30
  9.7837e+06   2.20e-30
  1.0156e+07   1.80e-30
  1.0542e+07   1.45e-30
  1.0943e+07   1.17e-30
  1.1360e+07   9.29e-31
  1.1792e+07   7.27e-31
  1.2240e+07   5.65e-31
  1.2706e+07   4.33e-31
  1.3189e+07   3.25e-31
  1.3691e+07   2.41e-31
  1.4212e+07   1.76e-31
  1.4753e+07   1.25e-31
  1.5314e+07   8.70e-32
  1.5897e+07   5.91e-32
  1.6501e+07   3.89e-32
  1.7129e+07   2.48e-32
  1.7781e+07   1.53e-32
  1.8457e+07   8.97e-33
  1.9159e+07   5.04e-33
  1.9888e+07   2.69e-33
  2.0645e+07   1.34e-33
  2.1430e+07   6.22e-34
  2.2245e+07   2.66e-34
  2.3092e+07   1.03e-34
  2.3970e+07   3.54e-35
  2.4882e+07   1.07e-35
  2.5829e+07   2.76e-36
  2.6811e+07   5.86e-37
  2.7831e+07   1.01e-37
  2.8890e+07   1.32e-38
  2.9989e+07   1.25e-39
  3.1130e+07   8.26e-41
  3.2314e+07   3.41e-42
  3.3544e+07   7.99e-44
  3.4820e+07   9.71e-46
  3.6144e+07   5.02e-48
  3.7519e+07   9.03e-51
  3.8947e+07   4.79e-54
  4.0428e+07   4.88e-58
  4.1966e+07   6.25e-63
  4.3563e+07   7.20e-69
  4.5220e+07   3.51e-70
  4.6941e+07   4.18e-70
  4.8726e+07   5.31e-70
  5.0580e+07   6.50e-70
