#  E [MeV]   Flux [# cm^{-2} s^{-1}  MeV^{-1}]
  3.0000e+04   3.90e-20
  3.0943e+04   3.77e-20
  3.1916e+04   3.64e-20
  3.2920e+04   3.52e-20
  3.3955e+04   3.39e-20
  3.5023e+04   3.28e-20
  3.6124e+04   3.16e-20
  3.7260e+04   3.05e-20
  3.8432e+04   2.94e-20
  3.9640e+04   2.84e-20
  4.0887e+04   2.74e-20
  4.2172e+04   2.64e-20
  4.3499e+04   2.55e-20
  4.4866e+04   2.46e-20
  4.6277e+04   2.37e-20
  4.7732e+04   2.28e-20
  4.9233e+04   2.20e-20
  5.0781e+04   2.12e-20
  5.2378e+04   2.04e-20
  5.4025e+04   1.96e-20
  5.5724e+04   1.89e-20
  5.7476e+04   1.82e-20
  5.9284e+04   1.75e-20
  6.1148e+04   1.68e-20
  6.3071e+04   1.62e-20
  6.5054e+04   1.56e-20
  6.7100e+04   1.50e-20
  6.9210e+04   1.44e-20
  7.1386e+04   1.38e-20
  7.3631e+04   1.33e-20
  7.5946e+04   1.28e-20
  7.8334e+04   1.23e-20
  8.0797e+04   1.18e-20
  8.3338e+04   1.13e-20
  8.5959e+04   1.08e-20
  8.8662e+04   1.04e-20
  9.1450e+04   9.97e-21
  9.4325e+04   9.56e-21
  9.7291e+04   9.16e-21
  1.0035e+05   8.78e-21
  1.0351e+05   8.41e-21
  1.0676e+05   8.05e-21
  1.1012e+05   7.71e-21
  1.1358e+05   7.38e-21
  1.1715e+05   7.06e-21
  1.2084e+05   6.76e-21
  1.2464e+05   6.46e-21
  1.2856e+05   6.18e-21
  1.3260e+05   5.91e-21
  1.3677e+05   5.65e-21
  1.4107e+05   5.39e-21
  1.4550e+05   5.15e-21
  1.5008e+05   4.92e-21
  1.5480e+05   4.70e-21
  1.5967e+05   4.48e-21
  1.6469e+05   4.27e-21
  1.6987e+05   4.08e-21
  1.7521e+05   3.89e-21
  1.8072e+05   3.70e-21
  1.8640e+05   3.53e-21
  1.9226e+05   3.36e-21
  1.9831e+05   3.20e-21
  2.0454e+05   3.04e-21
  2.1097e+05   2.90e-21
  2.1761e+05   2.76e-21
  2.2445e+05   2.62e-21
  2.3151e+05   2.49e-21
  2.3879e+05   2.37e-21
  2.4630e+05   2.25e-21
  2.5404e+05   2.13e-21
  2.6203e+05   2.03e-21
  2.7027e+05   1.92e-21
  2.7877e+05   1.82e-21
  2.8753e+05   1.73e-21
  2.9657e+05   1.64e-21
  3.0590e+05   1.55e-21
  3.1552e+05   1.47e-21
  3.2544e+05   1.39e-21
  3.3567e+05   1.32e-21
  3.4623e+05   1.25e-21
  3.5712e+05   1.18e-21
  3.6835e+05   1.12e-21
  3.7993e+05   1.06e-21
  3.9188e+05   9.97e-22
  4.0420e+05   9.41e-22
  4.1691e+05   8.89e-22
  4.3002e+05   8.38e-22
  4.4354e+05   7.90e-22
  4.5749e+05   7.45e-22
  4.7187e+05   7.02e-22
  4.8671e+05   6.61e-22
  5.0202e+05   6.22e-22
  5.1780e+05   5.86e-22
  5.3409e+05   5.51e-22
  5.5088e+05   5.18e-22
  5.6820e+05   4.87e-22
  5.8607e+05   4.58e-22
  6.0450e+05   4.30e-22
  6.2351e+05   4.03e-22
  6.4311e+05   3.79e-22
  6.6334e+05   3.55e-22
  6.8419e+05   3.33e-22
  7.0571e+05   3.12e-22
  7.2790e+05   2.92e-22
  7.5079e+05   2.74e-22
  7.7440e+05   2.56e-22
  7.9875e+05   2.39e-22
  8.2387e+05   2.24e-22
  8.4977e+05   2.09e-22
  8.7649e+05   1.95e-22
  9.0405e+05   1.82e-22
  9.3248e+05   1.70e-22
  9.6180e+05   1.59e-22
  9.9205e+05   1.48e-22
  1.0232e+06   1.38e-22
  1.0554e+06   1.29e-22
  1.0886e+06   1.20e-22
  1.1228e+06   1.11e-22
  1.1581e+06   1.04e-22
  1.1946e+06   9.62e-23
  1.2321e+06   8.93e-23
  1.2709e+06   8.30e-23
  1.3108e+06   7.71e-23
  1.3521e+06   7.15e-23
  1.3946e+06   6.62e-23
  1.4384e+06   6.15e-23
  1.4837e+06   5.70e-23
  1.5303e+06   5.27e-23
  1.5784e+06   4.87e-23
  1.6281e+06   4.51e-23
  1.6793e+06   4.17e-23
  1.7321e+06   3.85e-23
  1.7865e+06   3.55e-23
  1.8427e+06   3.28e-23
  1.9006e+06   3.03e-23
  1.9604e+06   2.78e-23
  2.0221e+06   2.57e-23
  2.0856e+06   2.37e-23
  2.1512e+06   2.17e-23
  2.2189e+06   1.99e-23
  2.2886e+06   1.84e-23
  2.3606e+06   1.69e-23
  2.4348e+06   1.55e-23
  2.5114e+06   1.42e-23
  2.5904e+06   1.31e-23
  2.6718e+06   1.20e-23
  2.7558e+06   1.09e-23
  2.8425e+06   1.00e-23
  2.9319e+06   9.19e-24
  3.0241e+06   8.40e-24
  3.1192e+06   7.65e-24
  3.2173e+06   7.01e-24
  3.3184e+06   6.41e-24
  3.4228e+06   5.84e-24
  3.5304e+06   5.31e-24
  3.6414e+06   4.86e-24
  3.7559e+06   4.44e-24
  3.8740e+06   4.04e-24
  3.9958e+06   3.68e-24
  4.1215e+06   3.37e-24
  4.2511e+06   3.07e-24
  4.3848e+06   2.79e-24
  4.5227e+06   2.55e-24
  4.6649e+06   2.34e-24
  4.8116e+06   2.13e-24
  4.9629e+06   1.94e-24
  5.1189e+06   1.78e-24
  5.2799e+06   1.64e-24
  5.4459e+06   1.50e-24
  5.6171e+06   1.37e-24
  5.7938e+06   1.27e-24
  5.9760e+06   1.17e-24
  6.1639e+06   1.08e-24
  6.3577e+06   1.00e-24
  6.5576e+06   9.38e-25
  6.7638e+06   8.74e-25
  6.9765e+06   8.14e-25
  7.1959e+06   7.68e-25
  7.4222e+06   7.26e-25
  7.6556e+06   6.86e-25
  7.8963e+06   6.48e-25
  8.1446e+06   6.21e-25
  8.4007e+06   5.96e-25
  8.6649e+06   5.71e-25
  8.9373e+06   5.52e-25
  9.2184e+06   5.42e-25
  9.5082e+06   5.32e-25
  9.8072e+06   5.21e-25
  1.0116e+07   5.23e-25
  1.0434e+07   5.28e-25
  1.0762e+07   5.31e-25
  1.1100e+07   5.34e-25
  1.1449e+07   5.72e-25
  1.1809e+07   6.08e-25
  1.2181e+07   6.38e-25
  1.2564e+07   6.94e-25
  1.2959e+07   8.33e-25
  1.3366e+07   9.56e-25
  1.3786e+07   1.06e-24
  1.4220e+07   1.11e-24
