#  E [MeV]   Flux [# cm^{-2} s^{-1}  MeV^{-1}]
  3.0000e+04   1.36e-17
  3.0589e+04   1.31e-17
  3.1190e+04   1.26e-17
  3.1803e+04   1.22e-17
  3.2428e+04   1.18e-17
  3.3065e+04   1.13e-17
  3.3714e+04   1.09e-17
  3.4376e+04   1.06e-17
  3.5052e+04   1.02e-17
  3.5740e+04   9.80e-18
  3.6442e+04   9.45e-18
  3.7158e+04   9.10e-18
  3.7888e+04   8.77e-18
  3.8632e+04   8.44e-18
  3.9391e+04   8.13e-18
  4.0165e+04   7.82e-18
  4.0954e+04   7.53e-18
  4.1758e+04   7.24e-18
  4.2579e+04   6.97e-18
  4.3415e+04   6.70e-18
  4.4268e+04   6.44e-18
  4.5138e+04   6.19e-18
  4.6024e+04   5.95e-18
  4.6928e+04   5.72e-18
  4.7850e+04   5.50e-18
  4.8790e+04   5.28e-18
  4.9749e+04   5.07e-18
  5.0726e+04   4.87e-18
  5.1722e+04   4.67e-18
  5.2738e+04   4.49e-18
  5.3774e+04   4.31e-18
  5.4831e+04   4.13e-18
  5.5908e+04   3.96e-18
  5.7006e+04   3.79e-18
  5.8126e+04   3.64e-18
  5.9268e+04   3.49e-18
  6.0432e+04   3.34e-18
  6.1619e+04   3.20e-18
  6.2829e+04   3.06e-18
  6.4064e+04   2.93e-18
  6.5322e+04   2.81e-18
  6.6605e+04   2.69e-18
  6.7913e+04   2.57e-18
  6.9248e+04   2.46e-18
  7.0608e+04   2.35e-18
  7.1995e+04   2.24e-18
  7.3409e+04   2.15e-18
  7.4851e+04   2.05e-18
  7.6321e+04   1.96e-18
  7.7821e+04   1.87e-18
  7.9349e+04   1.78e-18
  8.0908e+04   1.70e-18
  8.2497e+04   1.62e-18
  8.4118e+04   1.55e-18
  8.5770e+04   1.47e-18
  8.7455e+04   1.40e-18
  8.9173e+04   1.33e-18
  9.0925e+04   1.27e-18
  9.2711e+04   1.21e-18
  9.4532e+04   1.15e-18
  9.6389e+04   1.10e-18
  9.8283e+04   1.04e-18
  1.0021e+05   9.90e-19
  1.0218e+05   9.41e-19
  1.0419e+05   8.95e-19
  1.0624e+05   8.51e-19
  1.0832e+05   8.08e-19
  1.1045e+05   7.66e-19
  1.1262e+05   7.25e-19
  1.1483e+05   6.89e-19
  1.1709e+05   6.54e-19
  1.1939e+05   6.20e-19
  1.2173e+05   5.88e-19
  1.2412e+05   5.56e-19
  1.2656e+05   5.25e-19
  1.2905e+05   4.98e-19
  1.3158e+05   4.72e-19
  1.3417e+05   4.47e-19
  1.3680e+05   4.23e-19
  1.3949e+05   3.99e-19
  1.4223e+05   3.76e-19
  1.4503e+05   3.56e-19
  1.4787e+05   3.37e-19
  1.5078e+05   3.18e-19
  1.5374e+05   3.00e-19
  1.5676e+05   2.82e-19
  1.5984e+05   2.65e-19
  1.6298e+05   2.51e-19
  1.6618e+05   2.36e-19
  1.6945e+05   2.23e-19
  1.7278e+05   2.09e-19
  1.7617e+05   1.97e-19
  1.7963e+05   1.85e-19
  1.8316e+05   1.74e-19
  1.8676e+05   1.64e-19
  1.9042e+05   1.54e-19
  1.9417e+05   1.44e-19
  1.9798e+05   1.35e-19
  2.0187e+05   1.27e-19
  2.0583e+05   1.19e-19
  2.0988e+05   1.12e-19
  2.1400e+05   1.05e-19
  2.1820e+05   9.83e-20
  2.2249e+05   9.18e-20
  2.2686e+05   8.58e-20
  2.3132e+05   8.06e-20
  2.3586e+05   7.55e-20
  2.4049e+05   7.07e-20
  2.4522e+05   6.59e-20
  2.5004e+05   6.14e-20
  2.5495e+05   5.73e-20
  2.5996e+05   5.37e-20
  2.6506e+05   5.02e-20
  2.7027e+05   4.69e-20
  2.7558e+05   4.36e-20
  2.8099e+05   4.05e-20
  2.8651e+05   3.77e-20
  2.9214e+05   3.52e-20
  2.9788e+05   3.29e-20
  3.0373e+05   3.06e-20
  3.0970e+05   2.84e-20
  3.1578e+05   2.62e-20
  3.2198e+05   2.44e-20
  3.2831e+05   2.28e-20
  3.3476e+05   2.12e-20
  3.4133e+05   1.96e-20
  3.4804e+05   1.82e-20
  3.5487e+05   1.67e-20
  3.6185e+05   1.56e-20
  3.6895e+05   1.45e-20
  3.7620e+05   1.34e-20
  3.8359e+05   1.24e-20
  3.9113e+05   1.15e-20
  3.9881e+05   1.05e-20
  4.0664e+05   9.79e-21
  4.1463e+05   9.10e-21
  4.2278e+05   8.43e-21
  4.3108e+05   7.79e-21
  4.3955e+05   7.17e-21
  4.4818e+05   6.57e-21
  4.5699e+05   6.09e-21
  4.6596e+05   5.66e-21
  4.7512e+05   5.23e-21
  4.8445e+05   4.82e-21
  4.9397e+05   4.43e-21
  5.0367e+05   4.05e-21
  5.1356e+05   3.76e-21
  5.2365e+05   3.49e-21
  5.3394e+05   3.22e-21
  5.4443e+05   2.97e-21
  5.5512e+05   2.72e-21
  5.6603e+05   2.49e-21
  5.7715e+05   2.31e-21
  5.8848e+05   2.15e-21
  6.0004e+05   1.98e-21
  6.1183e+05   1.83e-21
  6.2385e+05   1.68e-21
  6.3610e+05   1.54e-21
  6.4860e+05   1.43e-21
  6.6134e+05   1.33e-21
  6.7433e+05   1.23e-21
  6.8758e+05   1.14e-21
  7.0108e+05   1.05e-21
  7.1486e+05   9.65e-22
  7.2890e+05   9.02e-22
  7.4322e+05   8.41e-22
  7.5782e+05   7.82e-22
  7.7270e+05   7.25e-22
  7.8788e+05   6.70e-22
  8.0336e+05   6.20e-22
  8.1914e+05   5.81e-22
  8.3523e+05   5.43e-22
  8.5164e+05   5.06e-22
  8.6837e+05   4.71e-22
  8.8542e+05   4.36e-22
  9.0282e+05   4.06e-22
  9.2055e+05   3.82e-22
  9.3863e+05   3.59e-22
  9.5707e+05   3.37e-22
  9.7587e+05   3.15e-22
  9.9504e+05   2.94e-22
  1.0146e+06   2.76e-22
  1.0345e+06   2.60e-22
  1.0548e+06   2.45e-22
  1.0756e+06   2.30e-22
  1.0967e+06   2.16e-22
  1.1182e+06   2.02e-22
  1.1402e+06   1.90e-22
  1.1626e+06   1.78e-22
  1.1854e+06   1.68e-22
  1.2087e+06   1.57e-22
  1.2325e+06   1.47e-22
  1.2567e+06   1.37e-22
  1.2814e+06   1.28e-22
  1.3065e+06   1.19e-22
  1.3322e+06   1.11e-22
  1.3584e+06   1.02e-22
  1.3851e+06   9.46e-23
  1.4123e+06   8.70e-23
  1.4400e+06   8.13e-23
