#  E [MeV]   Flux [# cm^{-2} s^{-1}  MeV^{-1}]
  3.0000e+04   1.62e-24
  3.1051e+04   1.56e-24
  3.2139e+04   1.50e-24
  3.3266e+04   1.45e-24
  3.4432e+04   1.39e-24
  3.5638e+04   1.34e-24
  3.6887e+04   1.29e-24
  3.8180e+04   1.24e-24
  3.9518e+04   1.19e-24
  4.0903e+04   1.14e-24
  4.2336e+04   1.10e-24
  4.3820e+04   1.06e-24
  4.5355e+04   1.01e-24
  4.6945e+04   9.73e-25
  4.8590e+04   9.34e-25
  5.0293e+04   8.97e-25
  5.2055e+04   8.60e-25
  5.3879e+04   8.25e-25
  5.5767e+04   7.92e-25
  5.7722e+04   7.59e-25
  5.9745e+04   7.28e-25
  6.1838e+04   6.98e-25
  6.4005e+04   6.68e-25
  6.6248e+04   6.40e-25
  6.8570e+04   6.13e-25
  7.0973e+04   5.87e-25
  7.3460e+04   5.62e-25
  7.6034e+04   5.38e-25
  7.8699e+04   5.15e-25
  8.1457e+04   4.93e-25
  8.4311e+04   4.72e-25
  8.7266e+04   4.51e-25
  9.0324e+04   4.31e-25
  9.3490e+04   4.12e-25
  9.6766e+04   3.94e-25
  1.0016e+05   3.76e-25
  1.0367e+05   3.59e-25
  1.0730e+05   3.43e-25
  1.1106e+05   3.28e-25
  1.1495e+05   3.13e-25
  1.1898e+05   2.99e-25
  1.2315e+05   2.85e-25
  1.2747e+05   2.72e-25
  1.3193e+05   2.59e-25
  1.3656e+05   2.47e-25
  1.4134e+05   2.36e-25
  1.4629e+05   2.25e-25
  1.5142e+05   2.14e-25
  1.5673e+05   2.04e-25
  1.6222e+05   1.94e-25
  1.6790e+05   1.85e-25
  1.7379e+05   1.76e-25
  1.7988e+05   1.68e-25
  1.8618e+05   1.59e-25
  1.9271e+05   1.52e-25
  1.9946e+05   1.44e-25
  2.0645e+05   1.37e-25
  2.1369e+05   1.31e-25
  2.2117e+05   1.24e-25
  2.2892e+05   1.18e-25
  2.3695e+05   1.12e-25
  2.4525e+05   1.06e-25
  2.5385e+05   1.01e-25
  2.6274e+05   9.60e-26
  2.7195e+05   9.11e-26
  2.8148e+05   8.65e-26
  2.9134e+05   8.21e-26
  3.0155e+05   7.79e-26
  3.1212e+05   7.39e-26
  3.2306e+05   7.01e-26
  3.3438e+05   6.66e-26
  3.4610e+05   6.31e-26
  3.5823e+05   5.99e-26
  3.7078e+05   5.68e-26
  3.8377e+05   5.38e-26
  3.9722e+05   5.10e-26
  4.1114e+05   4.83e-26
  4.2555e+05   4.58e-26
  4.4046e+05   4.34e-26
  4.5590e+05   4.11e-26
  4.7188e+05   3.89e-26
  4.8841e+05   3.68e-26
  5.0553e+05   3.49e-26
  5.2324e+05   3.30e-26
  5.4158e+05   3.13e-26
  5.6056e+05   2.96e-26
  5.8020e+05   2.80e-26
  6.0054e+05   2.66e-26
  6.2158e+05   2.51e-26
  6.4337e+05   2.38e-26
  6.6591e+05   2.25e-26
  6.8925e+05   2.13e-26
  7.1340e+05   2.02e-26
  7.3840e+05   1.91e-26
  7.6428e+05   1.81e-26
  7.9106e+05   1.71e-26
  8.1878e+05   1.62e-26
  8.4748e+05   1.54e-26
  8.7718e+05   1.45e-26
  9.0792e+05   1.38e-26
  9.3973e+05   1.30e-26
  9.7267e+05   1.23e-26
  1.0068e+06   1.17e-26
  1.0420e+06   1.11e-26
  1.0785e+06   1.05e-26
  1.1163e+06   9.96e-27
  1.1555e+06   9.44e-27
  1.1960e+06   8.96e-27
  1.2379e+06   8.49e-27
  1.2813e+06   8.06e-27
  1.3262e+06   7.65e-27
  1.3726e+06   7.26e-27
  1.4207e+06   6.89e-27
  1.4705e+06   6.54e-27
  1.5220e+06   6.21e-27
  1.5754e+06   5.90e-27
  1.6306e+06   5.60e-27
  1.6877e+06   5.33e-27
  1.7469e+06   5.06e-27
  1.8081e+06   4.81e-27
  1.8715e+06   4.58e-27
  1.9370e+06   4.35e-27
  2.0049e+06   4.14e-27
  2.0752e+06   3.94e-27
  2.1479e+06   3.76e-27
  2.2232e+06   3.58e-27
  2.3011e+06   3.41e-27
  2.3817e+06   3.25e-27
  2.4652e+06   3.10e-27
  2.5516e+06   2.95e-27
  2.6410e+06   2.81e-27
  2.7336e+06   2.68e-27
  2.8294e+06   2.56e-27
  2.9285e+06   2.44e-27
  3.0311e+06   2.33e-27
  3.1374e+06   2.22e-27
  3.2473e+06   2.12e-27
  3.3611e+06   2.02e-27
  3.4789e+06   1.93e-27
  3.6008e+06   1.84e-27
  3.7270e+06   1.76e-27
  3.8576e+06   1.68e-27
  3.9928e+06   1.61e-27
  4.1327e+06   1.54e-27
  4.2775e+06   1.47e-27
  4.4274e+06   1.40e-27
  4.5826e+06   1.34e-27
  4.7432e+06   1.28e-27
  4.9094e+06   1.22e-27
  5.0815e+06   1.17e-27
  5.2595e+06   1.12e-27
  5.4438e+06   1.07e-27
  5.6346e+06   1.02e-27
  5.8321e+06   9.72e-28
  6.0365e+06   9.27e-28
  6.2480e+06   8.84e-28
  6.4670e+06   8.43e-28
  6.6936e+06   8.04e-28
  6.9282e+06   7.67e-28
  7.1709e+06   7.31e-28
  7.4222e+06   6.96e-28
  7.6823e+06   6.63e-28
  7.9516e+06   6.31e-28
  8.2302e+06   6.00e-28
  8.5186e+06   5.70e-28
  8.8172e+06   5.42e-28
  9.1262e+06   5.15e-28
  9.4460e+06   4.89e-28
  9.7770e+06   4.64e-28
  1.0120e+07   4.40e-28
  1.0474e+07   4.17e-28
  1.0841e+07   3.95e-28
  1.1221e+07   3.73e-28
  1.1614e+07   3.52e-28
  1.2022e+07   3.32e-28
  1.2443e+07   3.13e-28
  1.2879e+07   2.95e-28
  1.3330e+07   2.77e-28
  1.3797e+07   2.60e-28
  1.4281e+07   2.43e-28
  1.4781e+07   2.28e-28
  1.5299e+07   2.12e-28
  1.5835e+07   1.98e-28
  1.6390e+07   1.84e-28
  1.6965e+07   1.71e-28
  1.7559e+07   1.58e-28
  1.8175e+07   1.45e-28
  1.8812e+07   1.34e-28
  1.9471e+07   1.22e-28
  2.0153e+07   1.11e-28
  2.0859e+07   1.01e-28
  2.1590e+07   9.12e-29
  2.2347e+07   8.17e-29
  2.3130e+07   7.27e-29
  2.3941e+07   6.41e-29
  2.4780e+07   5.61e-29
  2.5648e+07   4.84e-29
  2.6547e+07   4.13e-29
  2.7477e+07   3.46e-29
  2.8440e+07   2.87e-29
