#  E [MeV]   Flux [# cm^{-2} s^{-1}  MeV^{-1}]
  3.0000e+04   4.80e-19
  3.0675e+04   4.63e-19
  3.1366e+04   4.47e-19
  3.2072e+04   4.32e-19
  3.2794e+04   4.16e-19
  3.3533e+04   4.02e-19
  3.4288e+04   3.87e-19
  3.5060e+04   3.74e-19
  3.5849e+04   3.60e-19
  3.6656e+04   3.47e-19
  3.7482e+04   3.35e-19
  3.8326e+04   3.23e-19
  3.9188e+04   3.11e-19
  4.0071e+04   2.99e-19
  4.0973e+04   2.88e-19
  4.1896e+04   2.78e-19
  4.2839e+04   2.67e-19
  4.3803e+04   2.57e-19
  4.4790e+04   2.48e-19
  4.5798e+04   2.38e-19
  4.6829e+04   2.29e-19
  4.7884e+04   2.21e-19
  4.8962e+04   2.12e-19
  5.0064e+04   2.04e-19
  5.1191e+04   1.96e-19
  5.2344e+04   1.88e-19
  5.3522e+04   1.81e-19
  5.4727e+04   1.74e-19
  5.5960e+04   1.67e-19
  5.7219e+04   1.60e-19
  5.8508e+04   1.54e-19
  5.9825e+04   1.48e-19
  6.1172e+04   1.42e-19
  6.2549e+04   1.36e-19
  6.3958e+04   1.30e-19
  6.5398e+04   1.25e-19
  6.6870e+04   1.19e-19
  6.8376e+04   1.14e-19
  6.9915e+04   1.10e-19
  7.1489e+04   1.05e-19
  7.3099e+04   1.00e-19
  7.4745e+04   9.60e-20
  7.6428e+04   9.18e-20
  7.8148e+04   8.78e-20
  7.9908e+04   8.39e-20
  8.1707e+04   8.02e-20
  8.3547e+04   7.66e-20
  8.5428e+04   7.31e-20
  8.7351e+04   6.98e-20
  8.9318e+04   6.67e-20
  9.1329e+04   6.36e-20
  9.3385e+04   6.07e-20
  9.5488e+04   5.78e-20
  9.7638e+04   5.51e-20
  9.9836e+04   5.26e-20
  1.0208e+05   5.01e-20
  1.0438e+05   4.77e-20
  1.0673e+05   4.54e-20
  1.0914e+05   4.32e-20
  1.1159e+05   4.11e-20
  1.1411e+05   3.91e-20
  1.1667e+05   3.72e-20
  1.1930e+05   3.53e-20
  1.2199e+05   3.35e-20
  1.2473e+05   3.19e-20
  1.2754e+05   3.02e-20
  1.3041e+05   2.87e-20
  1.3335e+05   2.72e-20
  1.3635e+05   2.57e-20
  1.3942e+05   2.44e-20
  1.4256e+05   2.31e-20
  1.4577e+05   2.19e-20
  1.4905e+05   2.07e-20
  1.5241e+05   1.96e-20
  1.5584e+05   1.85e-20
  1.5935e+05   1.75e-20
  1.6294e+05   1.66e-20
  1.6661e+05   1.56e-20
  1.7036e+05   1.47e-20
  1.7419e+05   1.39e-20
  1.7812e+05   1.31e-20
  1.8213e+05   1.24e-20
  1.8623e+05   1.17e-20
  1.9042e+05   1.10e-20
  1.9471e+05   1.03e-20
  1.9909e+05   9.74e-21
  2.0357e+05   9.16e-21
  2.0816e+05   8.61e-21
  2.1284e+05   8.07e-21
  2.1763e+05   7.59e-21
  2.2253e+05   7.13e-21
  2.2755e+05   6.70e-21
  2.3267e+05   6.28e-21
  2.3791e+05   5.87e-21
  2.4326e+05   5.50e-21
  2.4874e+05   5.16e-21
  2.5434e+05   4.83e-21
  2.6007e+05   4.51e-21
  2.6592e+05   4.21e-21
  2.7191e+05   3.93e-21
  2.7803e+05   3.67e-21
  2.8429e+05   3.43e-21
  2.9069e+05   3.20e-21
  2.9724e+05   2.98e-21
  3.0393e+05   2.77e-21
  3.1077e+05   2.58e-21
  3.1777e+05   2.41e-21
  3.2493e+05   2.24e-21
  3.3224e+05   2.08e-21
  3.3972e+05   1.92e-21
  3.4737e+05   1.79e-21
  3.5519e+05   1.67e-21
  3.6319e+05   1.55e-21
  3.7137e+05   1.43e-21
  3.7973e+05   1.32e-21
  3.8828e+05   1.23e-21
  3.9702e+05   1.14e-21
  4.0596e+05   1.05e-21
  4.1510e+05   9.71e-22
  4.2444e+05   8.94e-22
  4.3400e+05   8.27e-22
  4.4377e+05   7.66e-22
  4.5376e+05   7.07e-22
  4.6398e+05   6.52e-22
  4.7443e+05   5.98e-22
  4.8511e+05   5.51e-22
  4.9603e+05   5.10e-22
  5.0720e+05   4.70e-22
  5.1862e+05   4.32e-22
  5.3030e+05   3.95e-22
  5.4224e+05   3.63e-22
  5.5444e+05   3.35e-22
  5.6693e+05   3.08e-22
  5.7969e+05   2.83e-22
  5.9274e+05   2.58e-22
  6.0609e+05   2.36e-22
  6.1974e+05   2.18e-22
  6.3369e+05   2.00e-22
  6.4796e+05   1.83e-22
  6.6255e+05   1.67e-22
  6.7746e+05   1.52e-22
  6.9272e+05   1.40e-22
  7.0831e+05   1.29e-22
  7.2426e+05   1.18e-22
  7.4057e+05   1.08e-22
  7.5724e+05   9.79e-23
  7.7429e+05   8.99e-23
  7.9172e+05   8.26e-23
  8.0955e+05   7.57e-23
  8.2778e+05   6.90e-23
  8.4641e+05   6.27e-23
  8.6547e+05   5.75e-23
  8.8496e+05   5.29e-23
  9.0488e+05   4.84e-23
  9.2526e+05   4.42e-23
  9.4609e+05   4.03e-23
  9.6739e+05   3.68e-23
  9.8917e+05   3.39e-23
  1.0114e+06   3.10e-23
  1.0342e+06   2.84e-23
  1.0575e+06   2.58e-23
  1.0813e+06   2.35e-23
  1.1057e+06   2.16e-23
  1.1305e+06   1.98e-23
  1.1560e+06   1.81e-23
  1.1820e+06   1.64e-23
  1.2086e+06   1.49e-23
  1.2359e+06   1.38e-23
  1.2637e+06   1.27e-23
  1.2921e+06   1.16e-23
  1.3212e+06   1.06e-23
  1.3510e+06   9.64e-24
  1.3814e+06   8.95e-24
  1.4125e+06   8.28e-24
  1.4443e+06   7.65e-24
  1.4768e+06   7.04e-24
  1.5101e+06   6.47e-24
  1.5441e+06   6.05e-24
  1.5788e+06   5.68e-24
  1.6144e+06   5.33e-24
  1.6507e+06   4.99e-24
  1.6879e+06   4.66e-24
  1.7259e+06   4.41e-24
  1.7648e+06   4.20e-24
  1.8045e+06   3.99e-24
  1.8451e+06   3.79e-24
  1.8867e+06   3.60e-24
  1.9291e+06   3.45e-24
  1.9726e+06   3.33e-24
  2.0170e+06   3.22e-24
  2.0624e+06   3.11e-24
  2.1088e+06   3.00e-24
  2.1563e+06   2.91e-24
  2.2049e+06   2.83e-24
  2.2545e+06   2.75e-24
  2.3053e+06   2.68e-24
  2.3572e+06   2.61e-24
  2.4102e+06   2.54e-24
  2.4645e+06   2.48e-24
  2.5200e+06   2.41e-24
