#  E [MeV]   Flux [# cm^{-2} s^{-1}  MeV^{-1}]
  3.0000e+04   7.39e-26
  3.1232e+04   7.06e-26
  3.2514e+04   6.76e-26
  3.3849e+04   6.46e-26
  3.5238e+04   6.18e-26
  3.6685e+04   5.91e-26
  3.8191e+04   5.65e-26
  3.9759e+04   5.40e-26
  4.1391e+04   5.16e-26
  4.3090e+04   4.93e-26
  4.4859e+04   4.71e-26
  4.6701e+04   4.50e-26
  4.8618e+04   4.30e-26
  5.0614e+04   4.11e-26
  5.2692e+04   3.93e-26
  5.4855e+04   3.75e-26
  5.7107e+04   3.59e-26
  5.9451e+04   3.42e-26
  6.1892e+04   3.27e-26
  6.4433e+04   3.12e-26
  6.7078e+04   2.98e-26
  6.9832e+04   2.85e-26
  7.2699e+04   2.72e-26
  7.5683e+04   2.59e-26
  7.8790e+04   2.47e-26
  8.2025e+04   2.36e-26
  8.5392e+04   2.25e-26
  8.8898e+04   2.15e-26
  9.2547e+04   2.05e-26
  9.6347e+04   1.95e-26
  1.0030e+05   1.86e-26
  1.0442e+05   1.78e-26
  1.0871e+05   1.69e-26
  1.1317e+05   1.61e-26
  1.1782e+05   1.54e-26
  1.2265e+05   1.46e-26
  1.2769e+05   1.39e-26
  1.3293e+05   1.32e-26
  1.3839e+05   1.26e-26
  1.4407e+05   1.20e-26
  1.4998e+05   1.14e-26
  1.5614e+05   1.08e-26
  1.6255e+05   1.03e-26
  1.6922e+05   9.77e-27
  1.7617e+05   9.28e-27
  1.8340e+05   8.80e-27
  1.9093e+05   8.35e-27
  1.9877e+05   7.91e-27
  2.0693e+05   7.49e-27
  2.1543e+05   7.09e-27
  2.2427e+05   6.71e-27
  2.3348e+05   6.35e-27
  2.4306e+05   6.00e-27
  2.5304e+05   5.66e-27
  2.6343e+05   5.34e-27
  2.7424e+05   5.03e-27
  2.8550e+05   4.74e-27
  2.9722e+05   4.46e-27
  3.0942e+05   4.19e-27
  3.2213e+05   3.94e-27
  3.3535e+05   3.70e-27
  3.4912e+05   3.46e-27
  3.6345e+05   3.25e-27
  3.7837e+05   3.04e-27
  3.9390e+05   2.84e-27
  4.1008e+05   2.65e-27
  4.2691e+05   2.47e-27
  4.4444e+05   2.30e-27
  4.6268e+05   2.15e-27
  4.8168e+05   2.00e-27
  5.0145e+05   1.85e-27
  5.2204e+05   1.72e-27
  5.4347e+05   1.60e-27
  5.6578e+05   1.48e-27
  5.8901e+05   1.37e-27
  6.1319e+05   1.27e-27
  6.3836e+05   1.17e-27
  6.6457e+05   1.08e-27
  6.9185e+05   9.97e-28
  7.2025e+05   9.20e-28
  7.4982e+05   8.48e-28
  7.8061e+05   7.82e-28
  8.1265e+05   7.20e-28
  8.4601e+05   6.63e-28
  8.8075e+05   6.11e-28
  9.1690e+05   5.62e-28
  9.5455e+05   5.17e-28
  9.9373e+05   4.76e-28
  1.0345e+06   4.38e-28
  1.0770e+06   4.03e-28
  1.1212e+06   3.71e-28
  1.1672e+06   3.41e-28
  1.2152e+06   3.14e-28
  1.2650e+06   2.89e-28
  1.3170e+06   2.66e-28
  1.3711e+06   2.45e-28
  1.4273e+06   2.25e-28
  1.4859e+06   2.07e-28
  1.5469e+06   1.91e-28
  1.6104e+06   1.76e-28
  1.6766e+06   1.62e-28
  1.7454e+06   1.49e-28
  1.8170e+06   1.37e-28
  1.8916e+06   1.26e-28
  1.9693e+06   1.16e-28
  2.0501e+06   1.07e-28
  2.1343e+06   9.81e-29
  2.2219e+06   9.02e-29
  2.3131e+06   8.28e-29
  2.4081e+06   7.60e-29
  2.5070e+06   6.97e-29
  2.6099e+06   6.39e-29
  2.7170e+06   5.86e-29
  2.8286e+06   5.36e-29
  2.9447e+06   4.90e-29
  3.0656e+06   4.48e-29
  3.1914e+06   4.08e-29
  3.3225e+06   3.72e-29
  3.4589e+06   3.39e-29
  3.6008e+06   3.08e-29
  3.7487e+06   2.79e-29
  3.9026e+06   2.52e-29
  4.0628e+06   2.28e-29
  4.2296e+06   2.06e-29
  4.4032e+06   1.85e-29
  4.5840e+06   1.66e-29
  4.7722e+06   1.48e-29
  4.9681e+06   1.33e-29
  5.1720e+06   1.18e-29
  5.3844e+06   1.05e-29
  5.6054e+06   9.26e-30
  5.8355e+06   8.15e-30
  6.0751e+06   7.15e-30
  6.3245e+06   6.26e-30
  6.5841e+06   5.44e-30
  6.8544e+06   4.71e-30
  7.1358e+06   4.06e-30
  7.4288e+06   3.47e-30
  7.7338e+06   2.96e-30
  8.0513e+06   2.51e-30
  8.3818e+06   2.10e-30
  8.7259e+06   1.76e-30
  9.0841e+06   1.45e-30
  9.4571e+06   1.18e-30
  9.8453e+06   9.62e-31
  1.0249e+07   7.70e-31
  1.0670e+07   6.09e-31
  1.1108e+07   4.77e-31
  1.1564e+07   3.66e-31
  1.2039e+07   2.77e-31
  1.2533e+07   2.06e-31
  1.3048e+07   1.50e-31
  1.3584e+07   1.07e-31
  1.4141e+07   7.44e-32
  1.4722e+07   5.00e-32
  1.5326e+07   3.28e-32
  1.5955e+07   2.07e-32
  1.6610e+07   1.25e-32
  1.7292e+07   7.21e-33
  1.8002e+07   3.95e-33
  1.8741e+07   2.02e-33
  1.9511e+07   9.76e-34
  2.0312e+07   4.32e-34
  2.1145e+07   1.73e-34
  2.2013e+07   6.32e-35
  2.2917e+07   2.02e-35
  2.3858e+07   5.53e-36
  2.4837e+07   1.29e-36
  2.5857e+07   2.41e-37
  2.6919e+07   3.55e-38
  2.8024e+07   3.92e-39
  2.9174e+07   3.01e-40
  3.0372e+07   1.52e-41
  3.1619e+07   4.60e-43
  3.2917e+07   7.29e-45
  3.4268e+07   5.34e-47
  3.5675e+07   1.49e-49
  3.7140e+07   1.23e-52
  3.8664e+07   2.24e-56
  4.0252e+07   5.98e-61
  4.1904e+07   1.34e-66
  4.3624e+07   5.79e-72
  4.5415e+07   4.85e-72
  4.7280e+07   3.99e-72
  4.9221e+07   3.39e-72
  5.1241e+07   2.82e-72
  5.3345e+07   2.32e-72
  5.5535e+07   1.96e-72
  5.7815e+07   1.62e-72
  6.0188e+07   1.33e-72
  6.2659e+07   1.11e-72
  6.5232e+07   9.03e-73
  6.7910e+07   7.36e-73
  7.0698e+07   6.07e-73
  7.3600e+07   4.87e-73
  7.6621e+07   3.89e-73
  7.9767e+07   3.06e-73
  8.3042e+07   2.28e-73
  8.6451e+07   1.69e-73
  9.0000e+07   1.18e-73
