#  E [GeV]   # per interaction  [GeV^{-1}]
  3.0000e+01   1.11e+00
  3.1141e+01   1.06e+00
  3.2326e+01   1.02e+00
  3.3556e+01   9.71e-01
  3.4832e+01   9.27e-01
  3.6157e+01   8.85e-01
  3.7533e+01   8.45e-01
  3.8961e+01   8.06e-01
  4.0443e+01   7.70e-01
  4.1982e+01   7.34e-01
  4.3579e+01   7.00e-01
  4.5237e+01   6.68e-01
  4.6958e+01   6.37e-01
  4.8744e+01   6.08e-01
  5.0598e+01   5.79e-01
  5.2523e+01   5.52e-01
  5.4521e+01   5.26e-01
  5.6596e+01   5.02e-01
  5.8749e+01   4.78e-01
  6.0984e+01   4.55e-01
  6.3304e+01   4.34e-01
  6.5712e+01   4.13e-01
  6.8212e+01   3.93e-01
  7.0807e+01   3.74e-01
  7.3500e+01   3.56e-01
  7.6297e+01   3.39e-01
  7.9199e+01   3.23e-01
  8.2212e+01   3.07e-01
  8.5340e+01   2.92e-01
  8.8586e+01   2.78e-01
  9.1956e+01   2.64e-01
  9.5455e+01   2.51e-01
  9.9086e+01   2.39e-01
  1.0286e+02   2.27e-01
  1.0677e+02   2.16e-01
  1.1083e+02   2.05e-01
  1.1505e+02   1.95e-01
  1.1942e+02   1.85e-01
  1.2397e+02   1.76e-01
  1.2868e+02   1.67e-01
  1.3358e+02   1.58e-01
  1.3866e+02   1.50e-01
  1.4394e+02   1.42e-01
  1.4941e+02   1.35e-01
  1.5509e+02   1.28e-01
  1.6100e+02   1.21e-01
  1.6712e+02   1.15e-01
  1.7348e+02   1.09e-01
  1.8008e+02   1.03e-01
  1.8693e+02   9.78e-02
  1.9404e+02   9.26e-02
  2.0142e+02   8.77e-02
  2.0908e+02   8.29e-02
  2.1704e+02   7.84e-02
  2.2529e+02   7.42e-02
  2.3387e+02   7.01e-02
  2.4276e+02   6.62e-02
  2.5200e+02   6.25e-02
  2.6158e+02   5.90e-02
  2.7154e+02   5.57e-02
  2.8187e+02   5.25e-02
  2.9259e+02   4.95e-02
  3.0372e+02   4.66e-02
  3.1527e+02   4.39e-02
  3.2727e+02   4.13e-02
  3.3972e+02   3.88e-02
  3.5264e+02   3.65e-02
  3.6606e+02   3.43e-02
  3.7998e+02   3.22e-02
  3.9444e+02   3.02e-02
  4.0945e+02   2.83e-02
  4.2502e+02   2.65e-02
  4.4119e+02   2.48e-02
  4.5798e+02   2.32e-02
  4.7540e+02   2.17e-02
  4.9348e+02   2.03e-02
  5.1226e+02   1.89e-02
  5.3175e+02   1.76e-02
  5.5198e+02   1.64e-02
  5.7297e+02   1.53e-02
  5.9477e+02   1.42e-02
  6.1740e+02   1.32e-02
  6.4089e+02   1.23e-02
  6.6527e+02   1.14e-02
  6.9058e+02   1.06e-02
  7.1685e+02   9.78e-03
  7.4412e+02   9.06e-03
  7.7243e+02   8.39e-03
  8.0181e+02   7.77e-03
  8.3232e+02   7.20e-03
  8.6398e+02   6.66e-03
  8.9685e+02   6.16e-03
  9.3097e+02   5.70e-03
  9.6638e+02   5.27e-03
  1.0031e+03   4.88e-03
  1.0413e+03   4.51e-03
  1.0809e+03   4.17e-03
  1.1220e+03   3.86e-03
  1.1647e+03   3.56e-03
  1.2090e+03   3.29e-03
  1.2550e+03   3.04e-03
  1.3028e+03   2.80e-03
  1.3523e+03   2.58e-03
  1.4038e+03   2.38e-03
  1.4572e+03   2.20e-03
  1.5126e+03   2.02e-03
  1.5702e+03   1.86e-03
  1.6299e+03   1.72e-03
  1.6919e+03   1.58e-03
  1.7563e+03   1.45e-03
  1.8231e+03   1.33e-03
  1.8925e+03   1.22e-03
  1.9645e+03   1.12e-03
  2.0392e+03   1.03e-03
  2.1168e+03   9.45e-04
  2.1973e+03   8.66e-04
  2.2809e+03   7.93e-04
  2.3677e+03   7.25e-04
  2.4577e+03   6.62e-04
  2.5512e+03   6.04e-04
  2.6483e+03   5.50e-04
  2.7490e+03   5.00e-04
  2.8536e+03   4.55e-04
  2.9622e+03   4.13e-04
  3.0749e+03   3.74e-04
  3.1918e+03   3.39e-04
  3.3133e+03   3.06e-04
  3.4393e+03   2.76e-04
  3.5702e+03   2.49e-04
  3.7060e+03   2.24e-04
  3.8470e+03   2.01e-04
  3.9933e+03   1.80e-04
  4.1452e+03   1.61e-04
  4.3029e+03   1.43e-04
  4.4666e+03   1.28e-04
  4.6366e+03   1.14e-04
  4.8129e+03   1.00e-04
  4.9960e+03   8.90e-05
  5.1861e+03   7.84e-05
  5.3834e+03   6.86e-05
  5.5882e+03   6.03e-05
  5.8008e+03   5.27e-05
  6.0215e+03   4.57e-05
  6.2506e+03   3.98e-05
  6.4883e+03   3.44e-05
  6.7352e+03   2.96e-05
  6.9914e+03   2.55e-05
  7.2574e+03   2.18e-05
  7.5335e+03   1.85e-05
  7.8201e+03   1.57e-05
  8.1176e+03   1.33e-05
  8.4264e+03   1.12e-05
  8.7470e+03   9.33e-06
  9.0797e+03   7.80e-06
  9.4251e+03   6.43e-06
  9.7837e+03   5.28e-06
  1.0156e+04   4.33e-06
  1.0542e+04   3.50e-06
  1.0943e+04   2.80e-06
  1.1360e+04   2.25e-06
  1.1792e+04   1.78e-06
  1.2240e+04   1.39e-06
  1.2706e+04   1.09e-06
  1.3189e+04   8.32e-07
  1.3691e+04   6.26e-07
  1.4212e+04   4.73e-07
  1.4753e+04   3.48e-07
  1.5314e+04   2.50e-07
  1.5897e+04   1.80e-07
  1.6501e+04   1.26e-07
  1.7129e+04   8.48e-08
  1.7781e+04   5.74e-08
  1.8457e+04   3.72e-08
  1.9159e+04   2.30e-08
  1.9888e+04   1.41e-08
  2.0645e+04   8.24e-09
  2.1430e+04   4.50e-09
  2.2245e+04   2.39e-09
  2.3092e+04   1.18e-09
  2.3970e+04   5.36e-10
  2.4882e+04   2.28e-10
  2.5829e+04   8.71e-11
  2.6811e+04   2.91e-11
  2.7831e+04   8.57e-12
  2.8890e+04   2.12e-12
  2.9989e+04   4.24e-13
  3.1130e+04   6.67e-14
  3.2314e+04   7.79e-15
  3.3544e+04   6.25e-16
  3.4820e+04   3.20e-17
  3.6144e+04   9.38e-19
  3.7519e+04   1.36e-20
  3.8947e+04   8.31e-23
  4.0428e+04   1.69e-25
  4.1966e+04   8.55e-29
  4.3563e+04   7.27e-33
  4.5220e+04   6.23e-38
  4.6941e+04   2.71e-44
  4.8726e+04   5.13e-48
  5.0580e+04   4.55e-48
