#  E [MeV]   Flux [# cm^{-2} s^{-1}  MeV^{-1}]
  3.0000e+04   6.83e-22
  3.1033e+04   6.57e-22
  3.2102e+04   6.32e-22
  3.3207e+04   6.08e-22
  3.4350e+04   5.85e-22
  3.5533e+04   5.62e-22
  3.6757e+04   5.41e-22
  3.8022e+04   5.20e-22
  3.9332e+04   4.99e-22
  4.0686e+04   4.80e-22
  4.2087e+04   4.61e-22
  4.3536e+04   4.43e-22
  4.5035e+04   4.25e-22
  4.6586e+04   4.08e-22
  4.8190e+04   3.91e-22
  4.9850e+04   3.76e-22
  5.1566e+04   3.60e-22
  5.3342e+04   3.45e-22
  5.5178e+04   3.31e-22
  5.7078e+04   3.17e-22
  5.9044e+04   3.04e-22
  6.1077e+04   2.92e-22
  6.3180e+04   2.79e-22
  6.5356e+04   2.67e-22
  6.7606e+04   2.56e-22
  6.9934e+04   2.45e-22
  7.2342e+04   2.35e-22
  7.4833e+04   2.24e-22
  7.7410e+04   2.15e-22
  8.0075e+04   2.05e-22
  8.2833e+04   1.96e-22
  8.5685e+04   1.88e-22
  8.8635e+04   1.79e-22
  9.1687e+04   1.71e-22
  9.4844e+04   1.63e-22
  9.8110e+04   1.56e-22
  1.0149e+05   1.49e-22
  1.0498e+05   1.42e-22
  1.0860e+05   1.36e-22
  1.1234e+05   1.29e-22
  1.1621e+05   1.23e-22
  1.2021e+05   1.18e-22
  1.2435e+05   1.12e-22
  1.2863e+05   1.07e-22
  1.3306e+05   1.02e-22
  1.3764e+05   9.68e-23
  1.4238e+05   9.21e-23
  1.4728e+05   8.77e-23
  1.5235e+05   8.34e-23
  1.5760e+05   7.93e-23
  1.6302e+05   7.54e-23
  1.6864e+05   7.16e-23
  1.7445e+05   6.80e-23
  1.8045e+05   6.46e-23
  1.8667e+05   6.13e-23
  1.9309e+05   5.82e-23
  1.9974e+05   5.52e-23
  2.0662e+05   5.23e-23
  2.1373e+05   4.96e-23
  2.2109e+05   4.69e-23
  2.2871e+05   4.45e-23
  2.3658e+05   4.21e-23
  2.4473e+05   3.98e-23
  2.5316e+05   3.76e-23
  2.6187e+05   3.56e-23
  2.7089e+05   3.36e-23
  2.8022e+05   3.18e-23
  2.8987e+05   3.00e-23
  2.9985e+05   2.83e-23
  3.1017e+05   2.67e-23
  3.2085e+05   2.52e-23
  3.3190e+05   2.37e-23
  3.4333e+05   2.23e-23
  3.5515e+05   2.10e-23
  3.6738e+05   1.97e-23
  3.8003e+05   1.86e-23
  3.9312e+05   1.75e-23
  4.0665e+05   1.64e-23
  4.2066e+05   1.54e-23
  4.3514e+05   1.44e-23
  4.5013e+05   1.35e-23
  4.6562e+05   1.27e-23
  4.8166e+05   1.19e-23
  4.9824e+05   1.12e-23
  5.1540e+05   1.04e-23
  5.3315e+05   9.77e-24
  5.5150e+05   9.15e-24
  5.7050e+05   8.56e-24
  5.9014e+05   8.00e-24
  6.1046e+05   7.49e-24
  6.3148e+05   7.00e-24
  6.5322e+05   6.54e-24
  6.7572e+05   6.12e-24
  6.9898e+05   5.72e-24
  7.2305e+05   5.34e-24
  7.4795e+05   4.99e-24
  7.7371e+05   4.67e-24
  8.0035e+05   4.36e-24
  8.2791e+05   4.08e-24
  8.5641e+05   3.81e-24
  8.8590e+05   3.57e-24
  9.1641e+05   3.34e-24
  9.4796e+05   3.12e-24
  9.8061e+05   2.93e-24
  1.0144e+06   2.74e-24
  1.0493e+06   2.57e-24
  1.0854e+06   2.41e-24
  1.1228e+06   2.26e-24
  1.1615e+06   2.12e-24
  1.2015e+06   1.99e-24
  1.2428e+06   1.87e-24
  1.2856e+06   1.76e-24
  1.3299e+06   1.65e-24
  1.3757e+06   1.56e-24
  1.4231e+06   1.46e-24
  1.4721e+06   1.38e-24
  1.5228e+06   1.30e-24
  1.5752e+06   1.23e-24
  1.6294e+06   1.16e-24
  1.6855e+06   1.09e-24
  1.7436e+06   1.03e-24
  1.8036e+06   9.75e-25
  1.8657e+06   9.22e-25
  1.9300e+06   8.73e-25
  1.9964e+06   8.26e-25
  2.0652e+06   7.82e-25
  2.1363e+06   7.41e-25
  2.2098e+06   7.02e-25
  2.2859e+06   6.65e-25
  2.3646e+06   6.30e-25
  2.4461e+06   5.97e-25
  2.5303e+06   5.67e-25
  2.6174e+06   5.37e-25
  2.7075e+06   5.09e-25
  2.8008e+06   4.83e-25
  2.8972e+06   4.58e-25
  2.9970e+06   4.34e-25
  3.1002e+06   4.12e-25
  3.2069e+06   3.90e-25
  3.3173e+06   3.70e-25
  3.4316e+06   3.50e-25
  3.5497e+06   3.32e-25
  3.6720e+06   3.14e-25
  3.7984e+06   2.97e-25
  3.9292e+06   2.81e-25
  4.0645e+06   2.66e-25
  4.2044e+06   2.51e-25
  4.3492e+06   2.37e-25
  4.4990e+06   2.23e-25
  4.6539e+06   2.10e-25
  4.8141e+06   1.97e-25
  4.9799e+06   1.85e-25
  5.1514e+06   1.74e-25
  5.3288e+06   1.63e-25
  5.5123e+06   1.52e-25
  5.7021e+06   1.42e-25
  5.8984e+06   1.32e-25
  6.1015e+06   1.23e-25
  6.3116e+06   1.14e-25
  6.5289e+06   1.05e-25
  6.7538e+06   9.74e-26
  6.9863e+06   8.97e-26
  7.2269e+06   8.23e-26
  7.4757e+06   7.54e-26
  7.7331e+06   6.88e-26
  7.9994e+06   6.26e-26
  8.2749e+06   5.67e-26
  8.5598e+06   5.11e-26
  8.8546e+06   4.59e-26
  9.1594e+06   4.10e-26
  9.4748e+06   3.65e-26
  9.8011e+06   3.22e-26
  1.0139e+07   2.83e-26
  1.0488e+07   2.47e-26
  1.0849e+07   2.14e-26
  1.1222e+07   1.84e-26
  1.1609e+07   1.56e-26
  1.2009e+07   1.32e-26
  1.2422e+07   1.10e-26
  1.2850e+07   9.06e-27
  1.3292e+07   7.38e-27
  1.3750e+07   5.93e-27
  1.4223e+07   4.69e-27
  1.4713e+07   3.65e-27
  1.5220e+07   2.79e-27
  1.5744e+07   2.09e-27
  1.6286e+07   1.52e-27
  1.6847e+07   1.09e-27
  1.7427e+07   7.51e-28
  1.8027e+07   5.03e-28
  1.8648e+07   3.25e-28
  1.9290e+07   2.01e-28
  1.9954e+07   1.19e-28
  2.0641e+07   6.70e-29
  2.1352e+07   3.54e-29
  2.2087e+07   1.75e-29
  2.2848e+07   8.00e-30
  2.3634e+07   3.34e-30
  2.4448e+07   1.27e-30
  2.5290e+07   4.29e-31
