#  E [MeV]   Flux [# cm^{-2} s^{-1}  MeV^{-1}]
  3.0000e+04   1.49e-20
  3.1123e+04   1.43e-20
  3.2288e+04   1.38e-20
  3.3497e+04   1.33e-20
  3.4751e+04   1.28e-20
  3.6051e+04   1.23e-20
  3.7401e+04   1.18e-20
  3.8801e+04   1.13e-20
  4.0253e+04   1.09e-20
  4.1760e+04   1.05e-20
  4.3324e+04   1.01e-20
  4.4945e+04   9.68e-21
  4.6628e+04   9.30e-21
  4.8373e+04   8.93e-21
  5.0184e+04   8.58e-21
  5.2063e+04   8.24e-21
  5.4011e+04   7.92e-21
  5.6033e+04   7.61e-21
  5.8131e+04   7.30e-21
  6.0307e+04   7.01e-21
  6.2564e+04   6.73e-21
  6.4906e+04   6.46e-21
  6.7336e+04   6.20e-21
  6.9857e+04   5.95e-21
  7.2472e+04   5.71e-21
  7.5184e+04   5.48e-21
  7.7999e+04   5.26e-21
  8.0919e+04   5.04e-21
  8.3948e+04   4.83e-21
  8.7090e+04   4.63e-21
  9.0350e+04   4.44e-21
  9.3732e+04   4.25e-21
  9.7241e+04   4.07e-21
  1.0088e+05   3.90e-21
  1.0466e+05   3.74e-21
  1.0858e+05   3.58e-21
  1.1264e+05   3.42e-21
  1.1686e+05   3.27e-21
  1.2123e+05   3.13e-21
  1.2577e+05   3.00e-21
  1.3048e+05   2.86e-21
  1.3536e+05   2.74e-21
  1.4043e+05   2.61e-21
  1.4568e+05   2.50e-21
  1.5114e+05   2.38e-21
  1.5680e+05   2.27e-21
  1.6266e+05   2.17e-21
  1.6875e+05   2.07e-21
  1.7507e+05   1.97e-21
  1.8162e+05   1.88e-21
  1.8842e+05   1.79e-21
  1.9548e+05   1.70e-21
  2.0279e+05   1.62e-21
  2.1039e+05   1.54e-21
  2.1826e+05   1.46e-21
  2.2643e+05   1.39e-21
  2.3491e+05   1.32e-21
  2.4370e+05   1.25e-21
  2.5282e+05   1.18e-21
  2.6229e+05   1.12e-21
  2.7211e+05   1.06e-21
  2.8229e+05   1.01e-21
  2.9286e+05   9.51e-22
  3.0382e+05   8.98e-22
  3.1519e+05   8.48e-22
  3.2699e+05   8.00e-22
  3.3923e+05   7.54e-22
  3.5193e+05   7.10e-22
  3.6511e+05   6.69e-22
  3.7877e+05   6.29e-22
  3.9295e+05   5.91e-22
  4.0766e+05   5.55e-22
  4.2292e+05   5.21e-22
  4.3875e+05   4.89e-22
  4.5518e+05   4.58e-22
  4.7222e+05   4.29e-22
  4.8989e+05   4.01e-22
  5.0823e+05   3.75e-22
  5.2726e+05   3.50e-22
  5.4699e+05   3.27e-22
  5.6747e+05   3.05e-22
  5.8871e+05   2.84e-22
  6.1075e+05   2.65e-22
  6.3361e+05   2.46e-22
  6.5733e+05   2.29e-22
  6.8194e+05   2.13e-22
  7.0746e+05   1.98e-22
  7.3395e+05   1.84e-22
  7.6142e+05   1.70e-22
  7.8992e+05   1.58e-22
  8.1949e+05   1.47e-22
  8.5017e+05   1.36e-22
  8.8199e+05   1.26e-22
  9.1501e+05   1.17e-22
  9.4926e+05   1.08e-22
  9.8479e+05   9.98e-23
  1.0217e+06   9.23e-23
  1.0599e+06   8.53e-23
  1.0996e+06   7.88e-23
  1.1407e+06   7.28e-23
  1.1834e+06   6.72e-23
  1.2277e+06   6.20e-23
  1.2737e+06   5.72e-23
  1.3214e+06   5.27e-23
  1.3708e+06   4.85e-23
  1.4222e+06   4.47e-23
  1.4754e+06   4.12e-23
  1.5306e+06   3.79e-23
  1.5879e+06   3.49e-23
  1.6474e+06   3.21e-23
  1.7090e+06   2.94e-23
  1.7730e+06   2.71e-23
  1.8394e+06   2.49e-23
  1.9082e+06   2.28e-23
  1.9797e+06   2.09e-23
  2.0538e+06   1.92e-23
  2.1306e+06   1.75e-23
  2.2104e+06   1.61e-23
  2.2931e+06   1.47e-23
  2.3790e+06   1.34e-23
  2.4680e+06   1.22e-23
  2.5604e+06   1.12e-23
  2.6563e+06   1.02e-23
  2.7557e+06   9.24e-24
  2.8589e+06   8.41e-24
  2.9659e+06   7.64e-24
  3.0769e+06   6.92e-24
  3.1921e+06   6.28e-24
  3.3116e+06   5.69e-24
  3.4355e+06   5.13e-24
  3.5641e+06   4.64e-24
  3.6976e+06   4.19e-24
  3.8360e+06   3.76e-24
  3.9796e+06   3.39e-24
  4.1285e+06   3.05e-24
  4.2831e+06   2.72e-24
  4.4434e+06   2.44e-24
  4.6097e+06   2.18e-24
  4.7823e+06   1.94e-24
  4.9613e+06   1.73e-24
  5.1470e+06   1.54e-24
  5.3397e+06   1.36e-24
  5.5396e+06   1.20e-24
  5.7470e+06   1.06e-24
  5.9621e+06   9.35e-25
  6.1853e+06   8.21e-25
  6.4168e+06   7.21e-25
  6.6570e+06   6.30e-25
  6.9062e+06   5.48e-25
  7.1647e+06   4.78e-25
  7.4329e+06   4.14e-25
  7.7112e+06   3.56e-25
  7.9998e+06   3.08e-25
  8.2993e+06   2.64e-25
  8.6100e+06   2.24e-25
  8.9323e+06   1.92e-25
  9.2666e+06   1.63e-25
  9.6135e+06   1.36e-25
  9.9734e+06   1.15e-25
  1.0347e+07   9.59e-26
  1.0734e+07   7.91e-26
  1.1136e+07   6.55e-26
  1.1553e+07   5.37e-26
  1.1985e+07   4.34e-26
  1.2434e+07   3.50e-26
  1.2899e+07   2.81e-26
  1.3382e+07   2.21e-26
  1.3883e+07   1.73e-26
  1.4403e+07   1.35e-26
  1.4942e+07   1.02e-26
  1.5501e+07   7.69e-27
  1.6081e+07   5.74e-27
  1.6683e+07   4.17e-27
  1.7308e+07   2.95e-27
  1.7956e+07   2.08e-27
  1.8628e+07   1.41e-27
  1.9325e+07   9.23e-28
  2.0049e+07   5.95e-28
  2.0799e+07   3.65e-28
  2.1578e+07   2.12e-28
  2.2386e+07   1.20e-28
  2.3224e+07   6.37e-29
  2.4093e+07   3.12e-29
  2.4995e+07   1.45e-29
  2.5930e+07   6.09e-30
  2.6901e+07   2.28e-30
  2.7908e+07   7.65e-31
  2.8953e+07   2.22e-31
  3.0037e+07   5.31e-32
  3.1161e+07   1.04e-32
  3.2327e+07   1.58e-33
  3.3537e+07   1.73e-34
  3.4793e+07   1.30e-35
  3.6095e+07   6.19e-37
  3.7446e+07   1.63e-38
  3.8848e+07   2.06e-40
  4.0302e+07   1.06e-42
  4.1811e+07   1.71e-45
  4.3376e+07   6.38e-49
  4.5000e+07   3.67e-53
