#  E [MeV]   Flux [# cm^{-2} s^{-1}  MeV^{-1}]
  3.0000e+04   2.94e-25
  3.1141e+04   2.81e-25
  3.2326e+04   2.69e-25
  3.3556e+04   2.57e-25
  3.4832e+04   2.45e-25
  3.6157e+04   2.34e-25
  3.7533e+04   2.24e-25
  3.8961e+04   2.14e-25
  4.0443e+04   2.04e-25
  4.1982e+04   1.95e-25
  4.3579e+04   1.86e-25
  4.5237e+04   1.78e-25
  4.6958e+04   1.69e-25
  4.8744e+04   1.62e-25
  5.0598e+04   1.54e-25
  5.2523e+04   1.47e-25
  5.4521e+04   1.40e-25
  5.6596e+04   1.34e-25
  5.8749e+04   1.27e-25
  6.0984e+04   1.21e-25
  6.3304e+04   1.16e-25
  6.5712e+04   1.10e-25
  6.8212e+04   1.05e-25
  7.0807e+04   9.99e-26
  7.3500e+04   9.51e-26
  7.6297e+04   9.05e-26
  7.9199e+04   8.61e-26
  8.2212e+04   8.19e-26
  8.5340e+04   7.79e-26
  8.8586e+04   7.40e-26
  9.1956e+04   7.04e-26
  9.5455e+04   6.69e-26
  9.9086e+04   6.35e-26
  1.0286e+05   6.03e-26
  1.0677e+05   5.73e-26
  1.1083e+05   5.44e-26
  1.1505e+05   5.16e-26
  1.1942e+05   4.89e-26
  1.2397e+05   4.64e-26
  1.2868e+05   4.40e-26
  1.3358e+05   4.17e-26
  1.3866e+05   3.95e-26
  1.4394e+05   3.74e-26
  1.4941e+05   3.54e-26
  1.5509e+05   3.35e-26
  1.6100e+05   3.17e-26
  1.6712e+05   2.99e-26
  1.7348e+05   2.83e-26
  1.8008e+05   2.67e-26
  1.8693e+05   2.52e-26
  1.9404e+05   2.37e-26
  2.0142e+05   2.24e-26
  2.0908e+05   2.11e-26
  2.1704e+05   1.98e-26
  2.2529e+05   1.87e-26
  2.3387e+05   1.75e-26
  2.4276e+05   1.65e-26
  2.5200e+05   1.55e-26
  2.6158e+05   1.45e-26
  2.7154e+05   1.36e-26
  2.8187e+05   1.27e-26
  2.9259e+05   1.19e-26
  3.0372e+05   1.11e-26
  3.1527e+05   1.04e-26
  3.2727e+05   9.65e-27
  3.3972e+05   8.98e-27
  3.5264e+05   8.36e-27
  3.6606e+05   7.76e-27
  3.7998e+05   7.20e-27
  3.9444e+05   6.68e-27
  4.0945e+05   6.18e-27
  4.2502e+05   5.72e-27
  4.4119e+05   5.29e-27
  4.5798e+05   4.88e-27
  4.7540e+05   4.50e-27
  4.9348e+05   4.15e-27
  5.1226e+05   3.81e-27
  5.3175e+05   3.51e-27
  5.5198e+05   3.22e-27
  5.7297e+05   2.96e-27
  5.9477e+05   2.71e-27
  6.1740e+05   2.48e-27
  6.4089e+05   2.27e-27
  6.6527e+05   2.08e-27
  6.9058e+05   1.90e-27
  7.1685e+05   1.74e-27
  7.4412e+05   1.58e-27
  7.7243e+05   1.45e-27
  8.0181e+05   1.32e-27
  8.3232e+05   1.20e-27
  8.6398e+05   1.10e-27
  8.9685e+05   1.00e-27
  9.3097e+05   9.10e-28
  9.6638e+05   8.29e-28
  1.0031e+06   7.55e-28
  1.0413e+06   6.87e-28
  1.0809e+06   6.26e-28
  1.1220e+06   5.70e-28
  1.1647e+06   5.18e-28
  1.2090e+06   4.72e-28
  1.2550e+06   4.29e-28
  1.3028e+06   3.90e-28
  1.3523e+06   3.55e-28
  1.4038e+06   3.23e-28
  1.4572e+06   2.93e-28
  1.5126e+06   2.67e-28
  1.5702e+06   2.42e-28
  1.6299e+06   2.20e-28
  1.6919e+06   2.00e-28
  1.7563e+06   1.82e-28
  1.8231e+06   1.65e-28
  1.8925e+06   1.50e-28
  1.9645e+06   1.36e-28
  2.0392e+06   1.23e-28
  2.1168e+06   1.11e-28
  2.1973e+06   1.01e-28
  2.2809e+06   9.11e-29
  2.3677e+06   8.23e-29
  2.4577e+06   7.43e-29
  2.5512e+06   6.69e-29
  2.6483e+06   6.02e-29
  2.7490e+06   5.42e-29
  2.8536e+06   4.86e-29
  2.9622e+06   4.35e-29
  3.0749e+06   3.90e-29
  3.1918e+06   3.49e-29
  3.3133e+06   3.10e-29
  3.4393e+06   2.77e-29
  3.5702e+06   2.46e-29
  3.7060e+06   2.18e-29
  3.8470e+06   1.93e-29
  3.9933e+06   1.70e-29
  4.1452e+06   1.50e-29
  4.3029e+06   1.32e-29
  4.4666e+06   1.15e-29
  4.6366e+06   1.00e-29
  4.8129e+06   8.76e-30
  4.9960e+06   7.60e-30
  5.1861e+06   6.54e-30
  5.3834e+06   5.64e-30
  5.5882e+06   4.85e-30
  5.8008e+06   4.12e-30
  6.0215e+06   3.51e-30
  6.2506e+06   2.98e-30
  6.4883e+06   2.50e-30
  6.7352e+06   2.10e-30
  6.9914e+06   1.75e-30
  7.2574e+06   1.45e-30
  7.5335e+06   1.19e-30
  7.8201e+06   9.77e-31
  8.1176e+06   7.91e-31
  8.4264e+06   6.37e-31
  8.7470e+06   5.12e-31
  9.0797e+06   4.04e-31
  9.4251e+06   3.16e-31
  9.7837e+06   2.47e-31
  1.0156e+07   1.89e-31
  1.0542e+07   1.43e-31
  1.0943e+07   1.08e-31
  1.1360e+07   7.92e-32
  1.1792e+07   5.71e-32
  1.2240e+07   4.11e-32
  1.2706e+07   2.88e-32
  1.3189e+07   1.96e-32
  1.3691e+07   1.32e-32
  1.4212e+07   8.66e-33
  1.4753e+07   5.44e-33
  1.5314e+07   3.38e-33
  1.5897e+07   2.00e-33
  1.6501e+07   1.13e-33
  1.7129e+07   6.21e-34
  1.7781e+07   3.21e-34
  1.8457e+07   1.55e-34
  1.9159e+07   7.14e-35
  1.9888e+07   3.03e-35
  2.0645e+07   1.17e-35
  2.1430e+07   4.12e-36
  2.2245e+07   1.29e-36
  2.3092e+07   3.53e-37
  2.3970e+07   8.28e-38
  2.4882e+07   1.62e-38
  2.5829e+07   2.55e-39
  2.6811e+07   3.12e-40
  2.7831e+07   2.84e-41
  2.8890e+07   1.82e-42
  2.9989e+07   7.66e-44
  3.1130e+07   1.96e-45
  3.2314e+07   2.76e-47
  3.3544e+07   1.88e-49
  3.4820e+07   5.33e-52
  3.6144e+07   5.19e-55
  3.7519e+07   1.36e-58
  3.8947e+07   7.03e-63
  4.0428e+07   4.88e-68
  4.1966e+07   4.56e-72
  4.3563e+07   4.12e-72
  4.5220e+07   3.72e-72
  4.6941e+07   3.35e-72
  4.8726e+07   3.07e-72
  5.0580e+07   2.81e-72
