#  E [MeV]   Flux [# cm^{-2} s^{-1}  MeV^{-1}]
  3.0000e+04   3.82e-21
  3.0765e+04   3.69e-21
  3.1549e+04   3.56e-21
  3.2354e+04   3.44e-21
  3.3179e+04   3.32e-21
  3.4025e+04   3.20e-21
  3.4892e+04   3.09e-21
  3.5782e+04   2.99e-21
  3.6695e+04   2.88e-21
  3.7630e+04   2.78e-21
  3.8590e+04   2.69e-21
  3.9574e+04   2.59e-21
  4.0583e+04   2.50e-21
  4.1618e+04   2.41e-21
  4.2679e+04   2.33e-21
  4.3767e+04   2.25e-21
  4.4883e+04   2.17e-21
  4.6028e+04   2.09e-21
  4.7201e+04   2.02e-21
  4.8405e+04   1.94e-21
  4.9639e+04   1.87e-21
  5.0905e+04   1.81e-21
  5.2203e+04   1.74e-21
  5.3534e+04   1.68e-21
  5.4899e+04   1.62e-21
  5.6299e+04   1.56e-21
  5.7734e+04   1.50e-21
  5.9207e+04   1.45e-21
  6.0716e+04   1.40e-21
  6.2264e+04   1.35e-21
  6.3852e+04   1.30e-21
  6.5480e+04   1.25e-21
  6.7150e+04   1.20e-21
  6.8862e+04   1.16e-21
  7.0618e+04   1.12e-21
  7.2419e+04   1.08e-21
  7.4265e+04   1.04e-21
  7.6159e+04   9.99e-22
  7.8101e+04   9.62e-22
  8.0092e+04   9.27e-22
  8.2135e+04   8.93e-22
  8.4229e+04   8.60e-22
  8.6377e+04   8.29e-22
  8.8579e+04   7.98e-22
  9.0838e+04   7.69e-22
  9.3154e+04   7.41e-22
  9.5529e+04   7.13e-22
  9.7965e+04   6.87e-22
  1.0046e+05   6.62e-22
  1.0303e+05   6.37e-22
  1.0565e+05   6.14e-22
  1.0835e+05   5.91e-22
  1.1111e+05   5.69e-22
  1.1394e+05   5.48e-22
  1.1685e+05   5.28e-22
  1.1983e+05   5.09e-22
  1.2288e+05   4.90e-22
  1.2602e+05   4.72e-22
  1.2923e+05   4.54e-22
  1.3252e+05   4.38e-22
  1.3590e+05   4.21e-22
  1.3937e+05   4.06e-22
  1.4292e+05   3.91e-22
  1.4657e+05   3.76e-22
  1.5030e+05   3.62e-22
  1.5414e+05   3.49e-22
  1.5807e+05   3.36e-22
  1.6210e+05   3.23e-22
  1.6623e+05   3.11e-22
  1.7047e+05   2.99e-22
  1.7482e+05   2.88e-22
  1.7927e+05   2.78e-22
  1.8384e+05   2.67e-22
  1.8853e+05   2.57e-22
  1.9334e+05   2.48e-22
  1.9827e+05   2.39e-22
  2.0333e+05   2.30e-22
  2.0851e+05   2.22e-22
  2.1383e+05   2.13e-22
  2.1928e+05   2.05e-22
  2.2487e+05   1.98e-22
  2.3060e+05   1.91e-22
  2.3648e+05   1.84e-22
  2.4251e+05   1.77e-22
  2.4870e+05   1.70e-22
  2.5504e+05   1.64e-22
  2.6154e+05   1.58e-22
  2.6821e+05   1.52e-22
  2.7505e+05   1.46e-22
  2.8206e+05   1.41e-22
  2.8926e+05   1.36e-22
  2.9663e+05   1.30e-22
  3.0420e+05   1.25e-22
  3.1195e+05   1.21e-22
  3.1991e+05   1.16e-22
  3.2806e+05   1.12e-22
  3.3643e+05   1.07e-22
  3.4501e+05   1.03e-22
  3.5381e+05   9.93e-23
  3.6283e+05   9.55e-23
  3.7208e+05   9.18e-23
  3.8157e+05   8.82e-23
  3.9130e+05   8.48e-23
  4.0127e+05   8.15e-23
  4.1150e+05   7.84e-23
  4.2200e+05   7.53e-23
  4.3276e+05   7.24e-23
  4.4379e+05   6.96e-23
  4.5511e+05   6.69e-23
  4.6671e+05   6.42e-23
  4.7861e+05   6.17e-23
  4.9082e+05   5.93e-23
  5.0333e+05   5.70e-23
  5.1617e+05   5.47e-23
  5.2933e+05   5.25e-23
  5.4283e+05   5.04e-23
  5.5667e+05   4.84e-23
  5.7086e+05   4.65e-23
  5.8542e+05   4.46e-23
  6.0035e+05   4.28e-23
  6.1565e+05   4.11e-23
  6.3135e+05   3.94e-23
  6.4745e+05   3.78e-23
  6.6396e+05   3.63e-23
  6.8089e+05   3.48e-23
  6.9825e+05   3.34e-23
  7.1606e+05   3.21e-23
  7.3432e+05   3.08e-23
  7.5304e+05   2.95e-23
  7.7224e+05   2.83e-23
  7.9193e+05   2.72e-23
  8.1213e+05   2.61e-23
  8.3283e+05   2.51e-23
  8.5407e+05   2.41e-23
  8.7585e+05   2.31e-23
  8.9818e+05   2.21e-23
  9.2108e+05   2.12e-23
  9.4457e+05   2.04e-23
  9.6866e+05   1.96e-23
  9.9336e+05   1.88e-23
  1.0187e+06   1.80e-23
  1.0447e+06   1.73e-23
  1.0713e+06   1.66e-23
  1.0986e+06   1.59e-23
  1.1266e+06   1.53e-23
  1.1554e+06   1.47e-23
  1.1848e+06   1.41e-23
  1.2150e+06   1.35e-23
  1.2460e+06   1.30e-23
  1.2778e+06   1.24e-23
  1.3104e+06   1.19e-23
  1.3438e+06   1.15e-23
  1.3780e+06   1.10e-23
  1.4132e+06   1.06e-23
  1.4492e+06   1.02e-23
  1.4862e+06   9.76e-24
  1.5241e+06   9.37e-24
  1.5629e+06   9.00e-24
  1.6028e+06   8.65e-24
  1.6436e+06   8.31e-24
  1.6856e+06   7.99e-24
  1.7285e+06   7.67e-24
  1.7726e+06   7.37e-24
  1.8178e+06   7.08e-24
  1.8642e+06   6.80e-24
  1.9117e+06   6.53e-24
  1.9604e+06   6.27e-24
  2.0104e+06   6.02e-24
  2.0617e+06   5.78e-24
  2.1143e+06   5.55e-24
  2.1682e+06   5.33e-24
  2.2235e+06   5.12e-24
  2.2802e+06   4.91e-24
  2.3383e+06   4.71e-24
  2.3979e+06   4.52e-24
  2.4591e+06   4.33e-24
  2.5218e+06   4.15e-24
  2.5861e+06   3.98e-24
  2.6520e+06   3.81e-24
  2.7196e+06   3.65e-24
  2.7890e+06   3.50e-24
  2.8601e+06   3.35e-24
  2.9330e+06   3.21e-24
  3.0078e+06   3.08e-24
  3.0845e+06   2.95e-24
  3.1632e+06   2.82e-24
  3.2438e+06   2.70e-24
  3.3265e+06   2.58e-24
  3.4113e+06   2.47e-24
  3.4983e+06   2.36e-24
  3.5875e+06   2.25e-24
  3.6790e+06   2.15e-24
  3.7728e+06   2.05e-24
  3.8690e+06   1.95e-24
  3.9677e+06   1.86e-24
  4.0689e+06   1.77e-24
  4.1726e+06   1.69e-24
  4.2790e+06   1.60e-24
  4.3881e+06   1.53e-24
  4.5000e+06   1.46e-24
