#  E [MeV]   Flux [# cm^{-2} s^{-1}  MeV^{-1}]
  3.0000e+04   3.30e-18
  3.0943e+04   3.19e-18
  3.1916e+04   3.09e-18
  3.2920e+04   2.99e-18
  3.3955e+04   2.89e-18
  3.5023e+04   2.79e-18
  3.6124e+04   2.70e-18
  3.7260e+04   2.61e-18
  3.8432e+04   2.52e-18
  3.9640e+04   2.44e-18
  4.0887e+04   2.35e-18
  4.2172e+04   2.27e-18
  4.3499e+04   2.19e-18
  4.4866e+04   2.12e-18
  4.6277e+04   2.04e-18
  4.7732e+04   1.97e-18
  4.9233e+04   1.90e-18
  5.0781e+04   1.83e-18
  5.2378e+04   1.77e-18
  5.4025e+04   1.70e-18
  5.5724e+04   1.64e-18
  5.7476e+04   1.58e-18
  5.9284e+04   1.52e-18
  6.1148e+04   1.47e-18
  6.3071e+04   1.41e-18
  6.5054e+04   1.36e-18
  6.7100e+04   1.31e-18
  6.9210e+04   1.26e-18
  7.1386e+04   1.21e-18
  7.3631e+04   1.16e-18
  7.5946e+04   1.12e-18
  7.8334e+04   1.07e-18
  8.0797e+04   1.03e-18
  8.3338e+04   9.90e-19
  8.5959e+04   9.51e-19
  8.8662e+04   9.13e-19
  9.1450e+04   8.75e-19
  9.4325e+04   8.39e-19
  9.7291e+04   8.04e-19
  1.0035e+05   7.70e-19
  1.0351e+05   7.38e-19
  1.0676e+05   7.06e-19
  1.1012e+05   6.76e-19
  1.1358e+05   6.47e-19
  1.1715e+05   6.19e-19
  1.2084e+05   5.92e-19
  1.2464e+05   5.66e-19
  1.2856e+05   5.40e-19
  1.3260e+05   5.16e-19
  1.3677e+05   4.93e-19
  1.4107e+05   4.70e-19
  1.4550e+05   4.48e-19
  1.5008e+05   4.28e-19
  1.5480e+05   4.08e-19
  1.5967e+05   3.88e-19
  1.6469e+05   3.70e-19
  1.6987e+05   3.52e-19
  1.7521e+05   3.35e-19
  1.8072e+05   3.19e-19
  1.8640e+05   3.03e-19
  1.9226e+05   2.88e-19
  1.9831e+05   2.74e-19
  2.0454e+05   2.60e-19
  2.1097e+05   2.47e-19
  2.1761e+05   2.34e-19
  2.2445e+05   2.22e-19
  2.3151e+05   2.11e-19
  2.3879e+05   2.00e-19
  2.4630e+05   1.89e-19
  2.5404e+05   1.79e-19
  2.6203e+05   1.70e-19
  2.7027e+05   1.61e-19
  2.7877e+05   1.52e-19
  2.8753e+05   1.44e-19
  2.9657e+05   1.36e-19
  3.0590e+05   1.29e-19
  3.1552e+05   1.21e-19
  3.2544e+05   1.15e-19
  3.3567e+05   1.08e-19
  3.4623e+05   1.02e-19
  3.5712e+05   9.62e-20
  3.6835e+05   9.07e-20
  3.7993e+05   8.54e-20
  3.9188e+05   8.03e-20
  4.0420e+05   7.56e-20
  4.1691e+05   7.11e-20
  4.3002e+05   6.68e-20
  4.4354e+05   6.27e-20
  4.5749e+05   5.88e-20
  4.7187e+05   5.52e-20
  4.8671e+05   5.17e-20
  5.0202e+05   4.85e-20
  5.1780e+05   4.54e-20
  5.3409e+05   4.25e-20
  5.5088e+05   3.98e-20
  5.6820e+05   3.72e-20
  5.8607e+05   3.48e-20
  6.0450e+05   3.25e-20
  6.2351e+05   3.03e-20
  6.4311e+05   2.82e-20
  6.6334e+05   2.63e-20
  6.8419e+05   2.45e-20
  7.0571e+05   2.28e-20
  7.2790e+05   2.12e-20
  7.5079e+05   1.98e-20
  7.7440e+05   1.83e-20
  7.9875e+05   1.70e-20
  8.2387e+05   1.58e-20
  8.4977e+05   1.46e-20
  8.7649e+05   1.36e-20
  9.0405e+05   1.26e-20
  9.3248e+05   1.16e-20
  9.6180e+05   1.07e-20
  9.9205e+05   9.91e-21
  1.0232e+06   9.17e-21
  1.0554e+06   8.47e-21
  1.0886e+06   7.80e-21
  1.1228e+06   7.18e-21
  1.1581e+06   6.62e-21
  1.1946e+06   6.10e-21
  1.2321e+06   5.60e-21
  1.2709e+06   5.14e-21
  1.3108e+06   4.73e-21
  1.3521e+06   4.34e-21
  1.3946e+06   3.97e-21
  1.4384e+06   3.64e-21
  1.4837e+06   3.33e-21
  1.5303e+06   3.05e-21
  1.5784e+06   2.77e-21
  1.6281e+06   2.54e-21
  1.6793e+06   2.32e-21
  1.7321e+06   2.11e-21
  1.7865e+06   1.92e-21
  1.8427e+06   1.76e-21
  1.9006e+06   1.60e-21
  1.9604e+06   1.45e-21
  2.0221e+06   1.32e-21
  2.0856e+06   1.20e-21
  2.1512e+06   1.09e-21
  2.2189e+06   9.79e-22
  2.2886e+06   8.90e-22
  2.3606e+06   8.07e-22
  2.4348e+06   7.28e-22
  2.5114e+06   6.55e-22
  2.5904e+06   5.95e-22
  2.6718e+06   5.37e-22
  2.7558e+06   4.82e-22
  2.8425e+06   4.34e-22
  2.9319e+06   3.92e-22
  3.0241e+06   3.53e-22
  3.1192e+06   3.15e-22
  3.2173e+06   2.84e-22
  3.3184e+06   2.55e-22
  3.4228e+06   2.28e-22
  3.5304e+06   2.03e-22
  3.6414e+06   1.83e-22
  3.7559e+06   1.64e-22
  3.8740e+06   1.46e-22
  3.9958e+06   1.30e-22
  4.1215e+06   1.17e-22
  4.2511e+06   1.04e-22
  4.3848e+06   9.26e-23
  4.5227e+06   8.27e-23
  4.6649e+06   7.41e-23
  4.8116e+06   6.59e-23
  4.9629e+06   5.81e-23
  5.1189e+06   5.21e-23
  5.2799e+06   4.65e-23
  5.4459e+06   4.12e-23
  5.6171e+06   3.64e-23
  5.7938e+06   3.26e-23
  5.9760e+06   2.91e-23
  6.1639e+06   2.57e-23
  6.3577e+06   2.28e-23
  6.5576e+06   2.03e-23
  6.7638e+06   1.80e-23
  6.9765e+06   1.57e-23
  7.1959e+06   1.40e-23
  7.4222e+06   1.25e-23
  7.6556e+06   1.10e-23
  7.8963e+06   9.68e-24
  8.1446e+06   8.70e-24
  8.4007e+06   7.78e-24
  8.6649e+06   6.91e-24
  8.9373e+06   6.15e-24
  9.2184e+06   5.59e-24
  9.5082e+06   5.06e-24
  9.8072e+06   4.56e-24
  1.0116e+07   4.15e-24
  1.0434e+07   3.82e-24
  1.0762e+07   3.50e-24
  1.1100e+07   3.20e-24
  1.1449e+07   2.99e-24
  1.1809e+07   2.79e-24
  1.2181e+07   2.61e-24
  1.2564e+07   2.44e-24
  1.2959e+07   2.31e-24
  1.3366e+07   2.18e-24
  1.3786e+07   2.06e-24
  1.4220e+07   1.95e-24
