#  E [GeV]   # per interaction  [GeV^{-1}]
  3.0000e+01   2.32e-02
  3.1051e+01   2.23e-02
  3.2139e+01   2.15e-02
  3.3266e+01   2.07e-02
  3.4432e+01   1.99e-02
  3.5638e+01   1.92e-02
  3.6887e+01   1.85e-02
  3.8180e+01   1.78e-02
  3.9518e+01   1.71e-02
  4.0903e+01   1.64e-02
  4.2336e+01   1.58e-02
  4.3820e+01   1.52e-02
  4.5355e+01   1.46e-02
  4.6945e+01   1.41e-02
  4.8590e+01   1.35e-02
  5.0293e+01   1.30e-02
  5.2055e+01   1.25e-02
  5.3879e+01   1.20e-02
  5.5767e+01   1.15e-02
  5.7722e+01   1.10e-02
  5.9745e+01   1.06e-02
  6.1838e+01   1.02e-02
  6.4005e+01   9.77e-03
  6.6248e+01   9.38e-03
  6.8570e+01   9.00e-03
  7.0973e+01   8.64e-03
  7.3460e+01   8.29e-03
  7.6034e+01   7.95e-03
  7.8699e+01   7.63e-03
  8.1457e+01   7.31e-03
  8.4311e+01   7.01e-03
  8.7266e+01   6.73e-03
  9.0324e+01   6.45e-03
  9.3490e+01   6.18e-03
  9.6766e+01   5.93e-03
  1.0016e+02   5.68e-03
  1.0367e+02   5.45e-03
  1.0730e+02   5.22e-03
  1.1106e+02   5.00e-03
  1.1495e+02   4.79e-03
  1.1898e+02   4.59e-03
  1.2315e+02   4.40e-03
  1.2747e+02   4.22e-03
  1.3193e+02   4.04e-03
  1.3656e+02   3.87e-03
  1.4134e+02   3.71e-03
  1.4629e+02   3.55e-03
  1.5142e+02   3.40e-03
  1.5673e+02   3.26e-03
  1.6222e+02   3.13e-03
  1.6790e+02   2.99e-03
  1.7379e+02   2.87e-03
  1.7988e+02   2.75e-03
  1.8618e+02   2.63e-03
  1.9271e+02   2.52e-03
  1.9946e+02   2.42e-03
  2.0645e+02   2.32e-03
  2.1369e+02   2.22e-03
  2.2117e+02   2.13e-03
  2.2892e+02   2.04e-03
  2.3695e+02   1.95e-03
  2.4525e+02   1.87e-03
  2.5385e+02   1.79e-03
  2.6274e+02   1.72e-03
  2.7195e+02   1.65e-03
  2.8148e+02   1.58e-03
  2.9134e+02   1.51e-03
  3.0155e+02   1.45e-03
  3.1212e+02   1.39e-03
  3.2306e+02   1.33e-03
  3.3438e+02   1.27e-03
  3.4610e+02   1.22e-03
  3.5823e+02   1.17e-03
  3.7078e+02   1.12e-03
  3.8377e+02   1.07e-03
  3.9722e+02   1.03e-03
  4.1114e+02   9.83e-04
  4.2555e+02   9.41e-04
  4.4046e+02   9.02e-04
  4.5590e+02   8.64e-04
  4.7188e+02   8.27e-04
  4.8841e+02   7.92e-04
  5.0553e+02   7.59e-04
  5.2324e+02   7.27e-04
  5.4158e+02   6.96e-04
  5.6056e+02   6.67e-04
  5.8020e+02   6.38e-04
  6.0054e+02   6.11e-04
  6.2158e+02   5.86e-04
  6.4337e+02   5.61e-04
  6.6591e+02   5.37e-04
  6.8925e+02   5.15e-04
  7.1340e+02   4.93e-04
  7.3840e+02   4.73e-04
  7.6428e+02   4.53e-04
  7.9106e+02   4.35e-04
  8.1878e+02   4.17e-04
  8.4748e+02   4.00e-04
  8.7718e+02   3.83e-04
  9.0792e+02   3.68e-04
  9.3973e+02   3.53e-04
  9.7267e+02   3.39e-04
  1.0068e+03   3.26e-04
  1.0420e+03   3.13e-04
  1.0785e+03   3.01e-04
  1.1163e+03   2.89e-04
  1.1555e+03   2.78e-04
  1.1960e+03   2.68e-04
  1.2379e+03   2.58e-04
  1.2813e+03   2.48e-04
  1.3262e+03   2.39e-04
  1.3726e+03   2.30e-04
  1.4207e+03   2.22e-04
  1.4705e+03   2.14e-04
  1.5220e+03   2.06e-04
  1.5754e+03   1.99e-04
  1.6306e+03   1.92e-04
  1.6877e+03   1.85e-04
  1.7469e+03   1.79e-04
  1.8081e+03   1.72e-04
  1.8715e+03   1.66e-04
  1.9370e+03   1.60e-04
  2.0049e+03   1.55e-04
  2.0752e+03   1.49e-04
  2.1479e+03   1.44e-04
  2.2232e+03   1.39e-04
  2.3011e+03   1.33e-04
  2.3817e+03   1.29e-04
  2.4652e+03   1.24e-04
  2.5516e+03   1.19e-04
  2.6410e+03   1.15e-04
  2.7336e+03   1.10e-04
  2.8294e+03   1.06e-04
  2.9285e+03   1.02e-04
  3.0311e+03   9.75e-05
  3.1374e+03   9.34e-05
  3.2473e+03   8.95e-05
  3.3611e+03   8.56e-05
  3.4789e+03   8.18e-05
  3.6008e+03   7.80e-05
  3.7270e+03   7.44e-05
  3.8576e+03   7.08e-05
  3.9928e+03   6.72e-05
  4.1327e+03   6.38e-05
  4.2775e+03   6.04e-05
  4.4274e+03   5.71e-05
  4.5826e+03   5.39e-05
  4.7432e+03   5.08e-05
  4.9094e+03   4.77e-05
  5.0815e+03   4.47e-05
  5.2595e+03   4.18e-05
  5.4438e+03   3.90e-05
  5.6346e+03   3.62e-05
  5.8321e+03   3.36e-05
  6.0365e+03   3.11e-05
  6.2480e+03   2.86e-05
  6.4670e+03   2.63e-05
  6.6936e+03   2.40e-05
  6.9282e+03   2.19e-05
  7.1709e+03   1.98e-05
  7.4222e+03   1.79e-05
  7.6823e+03   1.61e-05
  7.9516e+03   1.44e-05
  8.2302e+03   1.28e-05
  8.5186e+03   1.14e-05
  8.8172e+03   9.98e-06
  9.1262e+03   8.72e-06
  9.4460e+03   7.57e-06
  9.7770e+03   6.52e-06
  1.0120e+04   5.57e-06
  1.0474e+04   4.71e-06
  1.0841e+04   3.95e-06
  1.1221e+04   3.27e-06
  1.1614e+04   2.68e-06
  1.2022e+04   2.16e-06
  1.2443e+04   1.73e-06
  1.2879e+04   1.36e-06
  1.3330e+04   1.05e-06
  1.3797e+04   8.01e-07
  1.4281e+04   5.99e-07
  1.4781e+04   4.37e-07
  1.5299e+04   3.13e-07
  1.5835e+04   2.19e-07
  1.6390e+04   1.49e-07
  1.6965e+04   9.78e-08
  1.7559e+04   6.25e-08
  1.8175e+04   3.83e-08
  1.8812e+04   2.24e-08
  1.9471e+04   1.26e-08
  2.0153e+04   6.74e-09
  2.0859e+04   3.37e-09
  2.1590e+04   1.59e-09
  2.2347e+04   6.99e-10
  2.3130e+04   2.81e-10
  2.3941e+04   1.02e-10
  2.4780e+04   3.41e-11
  2.5648e+04   9.95e-12
  2.6547e+04   2.48e-12
  2.7477e+04   5.41e-13
  2.8440e+04   9.71e-14
