#  E [MeV]   Flux [# cm^{-2} s^{-1}  MeV^{-1}]
  3.0000e+04   3.68e-21
  3.0589e+04   3.58e-21
  3.1190e+04   3.49e-21
  3.1803e+04   3.39e-21
  3.2428e+04   3.30e-21
  3.3065e+04   3.21e-21
  3.3714e+04   3.13e-21
  3.4376e+04   3.04e-21
  3.5052e+04   2.96e-21
  3.5740e+04   2.88e-21
  3.6442e+04   2.81e-21
  3.7158e+04   2.73e-21
  3.7888e+04   2.66e-21
  3.8632e+04   2.58e-21
  3.9391e+04   2.52e-21
  4.0165e+04   2.45e-21
  4.0954e+04   2.38e-21
  4.1758e+04   2.32e-21
  4.2579e+04   2.26e-21
  4.3415e+04   2.20e-21
  4.4268e+04   2.14e-21
  4.5138e+04   2.08e-21
  4.6024e+04   2.03e-21
  4.6928e+04   1.97e-21
  4.7850e+04   1.92e-21
  4.8790e+04   1.87e-21
  4.9749e+04   1.82e-21
  5.0726e+04   1.77e-21
  5.1722e+04   1.72e-21
  5.2738e+04   1.68e-21
  5.3774e+04   1.63e-21
  5.4831e+04   1.59e-21
  5.5908e+04   1.55e-21
  5.7006e+04   1.51e-21
  5.8126e+04   1.47e-21
  5.9268e+04   1.43e-21
  6.0432e+04   1.39e-21
  6.1619e+04   1.36e-21
  6.2829e+04   1.32e-21
  6.4064e+04   1.29e-21
  6.5322e+04   1.25e-21
  6.6605e+04   1.22e-21
  6.7913e+04   1.19e-21
  6.9248e+04   1.16e-21
  7.0608e+04   1.13e-21
  7.1995e+04   1.10e-21
  7.3409e+04   1.07e-21
  7.4851e+04   1.04e-21
  7.6321e+04   1.02e-21
  7.7821e+04   9.90e-22
  7.9349e+04   9.64e-22
  8.0908e+04   9.40e-22
  8.2497e+04   9.16e-22
  8.4118e+04   8.92e-22
  8.5770e+04   8.69e-22
  8.7455e+04   8.47e-22
  8.9173e+04   8.26e-22
  9.0925e+04   8.05e-22
  9.2711e+04   7.84e-22
  9.4532e+04   7.64e-22
  9.6389e+04   7.45e-22
  9.8283e+04   7.26e-22
  1.0021e+05   7.08e-22
  1.0218e+05   6.90e-22
  1.0419e+05   6.73e-22
  1.0624e+05   6.56e-22
  1.0832e+05   6.39e-22
  1.1045e+05   6.23e-22
  1.1262e+05   6.07e-22
  1.1483e+05   5.92e-22
  1.1709e+05   5.77e-22
  1.1939e+05   5.63e-22
  1.2173e+05   5.48e-22
  1.2412e+05   5.35e-22
  1.2656e+05   5.21e-22
  1.2905e+05   5.08e-22
  1.3158e+05   4.95e-22
  1.3417e+05   4.83e-22
  1.3680e+05   4.71e-22
  1.3949e+05   4.59e-22
  1.4223e+05   4.48e-22
  1.4503e+05   4.37e-22
  1.4787e+05   4.26e-22
  1.5078e+05   4.15e-22
  1.5374e+05   4.05e-22
  1.5676e+05   3.95e-22
  1.5984e+05   3.85e-22
  1.6298e+05   3.75e-22
  1.6618e+05   3.66e-22
  1.6945e+05   3.56e-22
  1.7278e+05   3.47e-22
  1.7617e+05   3.39e-22
  1.7963e+05   3.30e-22
  1.8316e+05   3.22e-22
  1.8676e+05   3.13e-22
  1.9042e+05   3.05e-22
  1.9417e+05   2.98e-22
  1.9798e+05   2.90e-22
  2.0187e+05   2.83e-22
  2.0583e+05   2.76e-22
  2.0988e+05   2.69e-22
  2.1400e+05   2.62e-22
  2.1820e+05   2.55e-22
  2.2249e+05   2.48e-22
  2.2686e+05   2.42e-22
  2.3132e+05   2.36e-22
  2.3586e+05   2.30e-22
  2.4049e+05   2.24e-22
  2.4522e+05   2.18e-22
  2.5004e+05   2.12e-22
  2.5495e+05   2.07e-22
  2.5996e+05   2.01e-22
  2.6506e+05   1.96e-22
  2.7027e+05   1.91e-22
  2.7558e+05   1.86e-22
  2.8099e+05   1.81e-22
  2.8651e+05   1.76e-22
  2.9214e+05   1.71e-22
  2.9788e+05   1.67e-22
  3.0373e+05   1.62e-22
  3.0970e+05   1.58e-22
  3.1578e+05   1.54e-22
  3.2198e+05   1.49e-22
  3.2831e+05   1.45e-22
  3.3476e+05   1.41e-22
  3.4133e+05   1.37e-22
  3.4804e+05   1.33e-22
  3.5487e+05   1.30e-22
  3.6185e+05   1.26e-22
  3.6895e+05   1.22e-22
  3.7620e+05   1.19e-22
  3.8359e+05   1.15e-22
  3.9113e+05   1.12e-22
  3.9881e+05   1.09e-22
  4.0664e+05   1.05e-22
  4.1463e+05   1.02e-22
  4.2278e+05   9.93e-23
  4.3108e+05   9.63e-23
  4.3955e+05   9.34e-23
  4.4818e+05   9.06e-23
  4.5699e+05   8.78e-23
  4.6596e+05   8.51e-23
  4.7512e+05   8.25e-23
  4.8445e+05   7.99e-23
  4.9397e+05   7.75e-23
  5.0367e+05   7.51e-23
  5.1356e+05   7.27e-23
  5.2365e+05   7.05e-23
  5.3394e+05   6.82e-23
  5.4443e+05   6.61e-23
  5.5512e+05   6.40e-23
  5.6603e+05   6.19e-23
  5.7715e+05   5.99e-23
  5.8848e+05   5.79e-23
  6.0004e+05   5.61e-23
  6.1183e+05   5.42e-23
  6.2385e+05   5.24e-23
  6.3610e+05   5.07e-23
  6.4860e+05   4.90e-23
  6.6134e+05   4.73e-23
  6.7433e+05   4.58e-23
  6.8758e+05   4.42e-23
  7.0108e+05   4.27e-23
  7.1486e+05   4.12e-23
  7.2890e+05   3.98e-23
  7.4322e+05   3.85e-23
  7.5782e+05   3.71e-23
  7.7270e+05   3.59e-23
  7.8788e+05   3.46e-23
  8.0336e+05   3.34e-23
  8.1914e+05   3.22e-23
  8.3523e+05   3.11e-23
  8.5164e+05   3.00e-23
  8.6837e+05   2.90e-23
  8.8542e+05   2.80e-23
  9.0282e+05   2.70e-23
  9.2055e+05   2.60e-23
  9.3863e+05   2.51e-23
  9.5707e+05   2.43e-23
  9.7587e+05   2.34e-23
  9.9504e+05   2.26e-23
  1.0146e+06   2.18e-23
  1.0345e+06   2.10e-23
  1.0548e+06   2.03e-23
  1.0756e+06   1.96e-23
  1.0967e+06   1.89e-23
  1.1182e+06   1.82e-23
  1.1402e+06   1.76e-23
  1.1626e+06   1.69e-23
  1.1854e+06   1.63e-23
  1.2087e+06   1.57e-23
  1.2325e+06   1.52e-23
  1.2567e+06   1.46e-23
  1.2814e+06   1.41e-23
  1.3065e+06   1.35e-23
  1.3322e+06   1.30e-23
  1.3584e+06   1.26e-23
  1.3851e+06   1.21e-23
  1.4123e+06   1.17e-23
  1.4400e+06   1.14e-23
