#  E [MeV]   Flux [# cm^{-2} s^{-1}  MeV^{-1}]
  3.0000e+04   1.18e-19
  3.0854e+04   1.14e-19
  3.1733e+04   1.09e-19
  3.2636e+04   1.05e-19
  3.3566e+04   1.01e-19
  3.4521e+04   9.73e-20
  3.5504e+04   9.35e-20
  3.6515e+04   8.99e-20
  3.7555e+04   8.64e-20
  3.8625e+04   8.31e-20
  3.9724e+04   7.98e-20
  4.0855e+04   7.67e-20
  4.2019e+04   7.37e-20
  4.3215e+04   7.08e-20
  4.4446e+04   6.79e-20
  4.5711e+04   6.52e-20
  4.7013e+04   6.26e-20
  4.8352e+04   6.01e-20
  4.9728e+04   5.76e-20
  5.1144e+04   5.53e-20
  5.2601e+04   5.30e-20
  5.4099e+04   5.08e-20
  5.5639e+04   4.87e-20
  5.7223e+04   4.66e-20
  5.8853e+04   4.47e-20
  6.0528e+04   4.28e-20
  6.2252e+04   4.09e-20
  6.4025e+04   3.92e-20
  6.5848e+04   3.75e-20
  6.7723e+04   3.59e-20
  6.9651e+04   3.43e-20
  7.1634e+04   3.28e-20
  7.3674e+04   3.14e-20
  7.5772e+04   3.00e-20
  7.7929e+04   2.86e-20
  8.0148e+04   2.73e-20
  8.2431e+04   2.61e-20
  8.4778e+04   2.49e-20
  8.7192e+04   2.38e-20
  8.9674e+04   2.27e-20
  9.2228e+04   2.17e-20
  9.4854e+04   2.06e-20
  9.7555e+04   1.97e-20
  1.0033e+05   1.88e-20
  1.0319e+05   1.79e-20
  1.0613e+05   1.70e-20
  1.0915e+05   1.62e-20
  1.1226e+05   1.55e-20
  1.1545e+05   1.47e-20
  1.1874e+05   1.40e-20
  1.2212e+05   1.33e-20
  1.2560e+05   1.27e-20
  1.2918e+05   1.20e-20
  1.3286e+05   1.14e-20
  1.3664e+05   1.09e-20
  1.4053e+05   1.03e-20
  1.4453e+05   9.81e-21
  1.4865e+05   9.31e-21
  1.5288e+05   8.83e-21
  1.5723e+05   8.37e-21
  1.6171e+05   7.94e-21
  1.6631e+05   7.52e-21
  1.7105e+05   7.12e-21
  1.7592e+05   6.75e-21
  1.8093e+05   6.39e-21
  1.8608e+05   6.04e-21
  1.9138e+05   5.71e-21
  1.9683e+05   5.40e-21
  2.0243e+05   5.10e-21
  2.0820e+05   4.81e-21
  2.1413e+05   4.53e-21
  2.2022e+05   4.28e-21
  2.2649e+05   4.03e-21
  2.3294e+05   3.80e-21
  2.3958e+05   3.57e-21
  2.4640e+05   3.36e-21
  2.5341e+05   3.16e-21
  2.6063e+05   2.97e-21
  2.6805e+05   2.79e-21
  2.7568e+05   2.62e-21
  2.8353e+05   2.46e-21
  2.9161e+05   2.30e-21
  2.9991e+05   2.16e-21
  3.0845e+05   2.02e-21
  3.1723e+05   1.89e-21
  3.2627e+05   1.77e-21
  3.3556e+05   1.65e-21
  3.4511e+05   1.54e-21
  3.5494e+05   1.44e-21
  3.6504e+05   1.34e-21
  3.7544e+05   1.25e-21
  3.8613e+05   1.16e-21
  3.9712e+05   1.08e-21
  4.0843e+05   1.01e-21
  4.2006e+05   9.36e-22
  4.3202e+05   8.67e-22
  4.4432e+05   8.05e-22
  4.5698e+05   7.46e-22
  4.6999e+05   6.91e-22
  4.8337e+05   6.38e-22
  4.9713e+05   5.90e-22
  5.1129e+05   5.46e-22
  5.2585e+05   5.03e-22
  5.4082e+05   4.63e-22
  5.5622e+05   4.28e-22
  5.7206e+05   3.94e-22
  5.8835e+05   3.62e-22
  6.0510e+05   3.32e-22
  6.2233e+05   3.06e-22
  6.4005e+05   2.81e-22
  6.5828e+05   2.58e-22
  6.7702e+05   2.36e-22
  6.9630e+05   2.16e-22
  7.1613e+05   1.98e-22
  7.3652e+05   1.81e-22
  7.5749e+05   1.65e-22
  7.7906e+05   1.51e-22
  8.0124e+05   1.38e-22
  8.2406e+05   1.26e-22
  8.4752e+05   1.14e-22
  8.7165e+05   1.04e-22
  8.9647e+05   9.49e-23
  9.2200e+05   8.63e-23
  9.4825e+05   7.82e-23
  9.7526e+05   7.09e-23
  1.0030e+06   6.46e-23
  1.0316e+06   5.86e-23
  1.0610e+06   5.30e-23
  1.0912e+06   4.78e-23
  1.1222e+06   4.35e-23
  1.1542e+06   3.94e-23
  1.1871e+06   3.55e-23
  1.2209e+06   3.20e-23
  1.2556e+06   2.90e-23
  1.2914e+06   2.63e-23
  1.3281e+06   2.36e-23
  1.3660e+06   2.12e-23
  1.4049e+06   1.92e-23
  1.4449e+06   1.73e-23
  1.4860e+06   1.56e-23
  1.5283e+06   1.39e-23
  1.5718e+06   1.26e-23
  1.6166e+06   1.14e-23
  1.6626e+06   1.02e-23
  1.7100e+06   9.07e-24
  1.7587e+06   8.18e-24
  1.8087e+06   7.36e-24
  1.8602e+06   6.59e-24
  1.9132e+06   5.87e-24
  1.9677e+06   5.28e-24
  2.0237e+06   4.75e-24
  2.0813e+06   4.25e-24
  2.1406e+06   3.78e-24
  2.2016e+06   3.39e-24
  2.2642e+06   3.05e-24
  2.3287e+06   2.73e-24
  2.3950e+06   2.43e-24
  2.4632e+06   2.17e-24
  2.5334e+06   1.96e-24
  2.6055e+06   1.75e-24
  2.6797e+06   1.56e-24
  2.7560e+06   1.40e-24
  2.8345e+06   1.26e-24
  2.9152e+06   1.13e-24
  2.9982e+06   1.01e-24
  3.0836e+06   9.05e-25
  3.1714e+06   8.21e-25
  3.2617e+06   7.41e-25
  3.3545e+06   6.65e-25
  3.4501e+06   5.98e-25
  3.5483e+06   5.45e-25
  3.6493e+06   4.96e-25
  3.7532e+06   4.49e-25
  3.8601e+06   4.06e-25
  3.9700e+06   3.72e-25
  4.0831e+06   3.40e-25
  4.1993e+06   3.10e-25
  4.3189e+06   2.81e-25
  4.4419e+06   2.59e-25
  4.5684e+06   2.38e-25
  4.6985e+06   2.18e-25
  4.8322e+06   1.98e-25
  4.9698e+06   1.83e-25
  5.1114e+06   1.69e-25
  5.2569e+06   1.55e-25
  5.4066e+06   1.42e-25
  5.5605e+06   1.31e-25
  5.7189e+06   1.21e-25
  5.8817e+06   1.11e-25
  6.0492e+06   1.02e-25
  6.2214e+06   9.36e-26
  6.3986e+06   8.58e-26
  6.5808e+06   7.85e-26
  6.7682e+06   7.15e-26
  6.9609e+06   6.50e-26
  7.1591e+06   5.88e-26
  7.3630e+06   5.31e-26
  7.5726e+06   4.76e-26
  7.7882e+06   4.31e-26
  8.0100e+06   3.93e-26
