#  E [MeV]   Flux [# cm^{-2} s^{-1}  MeV^{-1}]
  3.0000e+04   7.42e-24
  3.0607e+04   7.21e-24
  3.1227e+04   7.01e-24
  3.1859e+04   6.81e-24
  3.2504e+04   6.62e-24
  3.3163e+04   6.44e-24
  3.3834e+04   6.26e-24
  3.4519e+04   6.08e-24
  3.5218e+04   5.91e-24
  3.5931e+04   5.75e-24
  3.6659e+04   5.59e-24
  3.7401e+04   5.44e-24
  3.8158e+04   5.28e-24
  3.8931e+04   5.14e-24
  3.9719e+04   4.99e-24
  4.0523e+04   4.86e-24
  4.1344e+04   4.72e-24
  4.2181e+04   4.59e-24
  4.3035e+04   4.46e-24
  4.3906e+04   4.34e-24
  4.4795e+04   4.22e-24
  4.5702e+04   4.10e-24
  4.6628e+04   3.99e-24
  4.7572e+04   3.88e-24
  4.8535e+04   3.77e-24
  4.9517e+04   3.66e-24
  5.0520e+04   3.56e-24
  5.1543e+04   3.46e-24
  5.2587e+04   3.37e-24
  5.3651e+04   3.28e-24
  5.4738e+04   3.18e-24
  5.5846e+04   3.10e-24
  5.6977e+04   3.01e-24
  5.8130e+04   2.93e-24
  5.9307e+04   2.85e-24
  6.0508e+04   2.77e-24
  6.1733e+04   2.70e-24
  6.2983e+04   2.62e-24
  6.4258e+04   2.55e-24
  6.5559e+04   2.48e-24
  6.6887e+04   2.41e-24
  6.8241e+04   2.35e-24
  6.9623e+04   2.28e-24
  7.1033e+04   2.22e-24
  7.2471e+04   2.16e-24
  7.3938e+04   2.11e-24
  7.5435e+04   2.05e-24
  7.6963e+04   1.99e-24
  7.8521e+04   1.94e-24
  8.0111e+04   1.89e-24
  8.1733e+04   1.84e-24
  8.3388e+04   1.79e-24
  8.5076e+04   1.74e-24
  8.6799e+04   1.69e-24
  8.8556e+04   1.65e-24
  9.0349e+04   1.60e-24
  9.2178e+04   1.56e-24
  9.4045e+04   1.52e-24
  9.5949e+04   1.48e-24
  9.7892e+04   1.44e-24
  9.9874e+04   1.40e-24
  1.0190e+05   1.36e-24
  1.0396e+05   1.33e-24
  1.0606e+05   1.29e-24
  1.0821e+05   1.26e-24
  1.1040e+05   1.23e-24
  1.1264e+05   1.19e-24
  1.1492e+05   1.16e-24
  1.1725e+05   1.13e-24
  1.1962e+05   1.10e-24
  1.2204e+05   1.07e-24
  1.2451e+05   1.05e-24
  1.2703e+05   1.02e-24
  1.2961e+05   9.93e-25
  1.3223e+05   9.67e-25
  1.3491e+05   9.42e-25
  1.3764e+05   9.17e-25
  1.4043e+05   8.94e-25
  1.4327e+05   8.71e-25
  1.4617e+05   8.48e-25
  1.4913e+05   8.26e-25
  1.5215e+05   8.05e-25
  1.5523e+05   7.84e-25
  1.5837e+05   7.64e-25
  1.6158e+05   7.45e-25
  1.6485e+05   7.26e-25
  1.6819e+05   7.07e-25
  1.7159e+05   6.89e-25
  1.7507e+05   6.72e-25
  1.7861e+05   6.54e-25
  1.8223e+05   6.38e-25
  1.8592e+05   6.21e-25
  1.8968e+05   6.05e-25
  1.9352e+05   5.89e-25
  1.9744e+05   5.74e-25
  2.0144e+05   5.59e-25
  2.0552e+05   5.45e-25
  2.0968e+05   5.30e-25
  2.1392e+05   5.17e-25
  2.1826e+05   5.03e-25
  2.2267e+05   4.90e-25
  2.2718e+05   4.77e-25
  2.3178e+05   4.65e-25
  2.3648e+05   4.52e-25
  2.4126e+05   4.41e-25
  2.4615e+05   4.29e-25
  2.5113e+05   4.18e-25
  2.5622e+05   4.07e-25
  2.6141e+05   3.96e-25
  2.6670e+05   3.85e-25
  2.7210e+05   3.75e-25
  2.7761e+05   3.65e-25
  2.8323e+05   3.56e-25
  2.8896e+05   3.46e-25
  2.9481e+05   3.37e-25
  3.0078e+05   3.28e-25
  3.0687e+05   3.19e-25
  3.1309e+05   3.11e-25
  3.1943e+05   3.02e-25
  3.2589e+05   2.94e-25
  3.3249e+05   2.86e-25
  3.3922e+05   2.78e-25
  3.4609e+05   2.71e-25
  3.5310e+05   2.63e-25
  3.6025e+05   2.56e-25
  3.6754e+05   2.49e-25
  3.7498e+05   2.42e-25
  3.8258e+05   2.35e-25
  3.9032e+05   2.28e-25
  3.9823e+05   2.22e-25
  4.0629e+05   2.16e-25
  4.1452e+05   2.09e-25
  4.2291e+05   2.03e-25
  4.3147e+05   1.98e-25
  4.4021e+05   1.92e-25
  4.4912e+05   1.86e-25
  4.5821e+05   1.81e-25
  4.6749e+05   1.75e-25
  4.7696e+05   1.70e-25
  4.8661e+05   1.65e-25
  4.9647e+05   1.60e-25
  5.0652e+05   1.55e-25
  5.1678e+05   1.51e-25
  5.2724e+05   1.46e-25
  5.3791e+05   1.42e-25
  5.4881e+05   1.37e-25
  5.5992e+05   1.33e-25
  5.7125e+05   1.29e-25
  5.8282e+05   1.25e-25
  5.9462e+05   1.21e-25
  6.0666e+05   1.18e-25
  6.1894e+05   1.14e-25
  6.3148e+05   1.11e-25
  6.4426e+05   1.07e-25
  6.5731e+05   1.04e-25
  6.7061e+05   1.00e-25
  6.8419e+05   9.70e-26
  6.9805e+05   9.39e-26
  7.1218e+05   9.08e-26
  7.2660e+05   8.79e-26
  7.4131e+05   8.50e-26
  7.5632e+05   8.22e-26
  7.7163e+05   7.95e-26
  7.8726e+05   7.69e-26
  8.0320e+05   7.44e-26
  8.1946e+05   7.19e-26
  8.3605e+05   6.95e-26
  8.5298e+05   6.72e-26
  8.7025e+05   6.49e-26
  8.8787e+05   6.27e-26
  9.0585e+05   6.06e-26
  9.2419e+05   5.86e-26
  9.4290e+05   5.66e-26
  9.6199e+05   5.47e-26
  9.8147e+05   5.29e-26
  1.0013e+06   5.11e-26
  1.0216e+06   4.94e-26
  1.0423e+06   4.77e-26
  1.0634e+06   4.61e-26
  1.0849e+06   4.45e-26
  1.1069e+06   4.30e-26
  1.1293e+06   4.15e-26
  1.1522e+06   4.01e-26
  1.1755e+06   3.87e-26
  1.1993e+06   3.74e-26
  1.2236e+06   3.61e-26
  1.2484e+06   3.49e-26
  1.2736e+06   3.36e-26
  1.2994e+06   3.25e-26
  1.3257e+06   3.13e-26
  1.3526e+06   3.02e-26
  1.3800e+06   2.91e-26
  1.4079e+06   2.81e-26
  1.4364e+06   2.71e-26
  1.4655e+06   2.61e-26
  1.4952e+06   2.52e-26
  1.5255e+06   2.43e-26
  1.5563e+06   2.34e-26
  1.5879e+06   2.27e-26
  1.6200e+06   2.20e-26
