#  E [GeV]   # per interaction  [GeV^{-1}]
  3.0000e+01   1.09e+00
  3.1123e+01   1.05e+00
  3.2288e+01   9.99e-01
  3.3497e+01   9.56e-01
  3.4751e+01   9.14e-01
  3.6051e+01   8.73e-01
  3.7401e+01   8.34e-01
  3.8801e+01   7.97e-01
  4.0253e+01   7.62e-01
  4.1760e+01   7.27e-01
  4.3324e+01   6.95e-01
  4.4945e+01   6.63e-01
  4.6628e+01   6.33e-01
  4.8373e+01   6.04e-01
  5.0184e+01   5.77e-01
  5.2063e+01   5.50e-01
  5.4011e+01   5.25e-01
  5.6033e+01   5.01e-01
  5.8131e+01   4.78e-01
  6.0307e+01   4.55e-01
  6.2564e+01   4.34e-01
  6.4906e+01   4.14e-01
  6.7336e+01   3.94e-01
  6.9857e+01   3.76e-01
  7.2472e+01   3.58e-01
  7.5184e+01   3.41e-01
  7.7999e+01   3.24e-01
  8.0919e+01   3.09e-01
  8.3948e+01   2.94e-01
  8.7090e+01   2.80e-01
  9.0350e+01   2.66e-01
  9.3732e+01   2.53e-01
  9.7241e+01   2.41e-01
  1.0088e+02   2.29e-01
  1.0466e+02   2.17e-01
  1.0858e+02   2.06e-01
  1.1264e+02   1.96e-01
  1.1686e+02   1.86e-01
  1.2123e+02   1.77e-01
  1.2577e+02   1.68e-01
  1.3048e+02   1.59e-01
  1.3536e+02   1.51e-01
  1.4043e+02   1.43e-01
  1.4568e+02   1.36e-01
  1.5114e+02   1.28e-01
  1.5680e+02   1.22e-01
  1.6266e+02   1.15e-01
  1.6875e+02   1.09e-01
  1.7507e+02   1.03e-01
  1.8162e+02   9.74e-02
  1.8842e+02   9.20e-02
  1.9548e+02   8.69e-02
  2.0279e+02   8.20e-02
  2.1039e+02   7.73e-02
  2.1826e+02   7.29e-02
  2.2643e+02   6.87e-02
  2.3491e+02   6.47e-02
  2.4370e+02   6.09e-02
  2.5282e+02   5.72e-02
  2.6229e+02   5.38e-02
  2.7211e+02   5.05e-02
  2.8229e+02   4.73e-02
  2.9286e+02   4.44e-02
  3.0382e+02   4.15e-02
  3.1519e+02   3.89e-02
  3.2699e+02   3.63e-02
  3.3923e+02   3.39e-02
  3.5193e+02   3.17e-02
  3.6511e+02   2.95e-02
  3.7877e+02   2.75e-02
  3.9295e+02   2.56e-02
  4.0766e+02   2.38e-02
  4.2292e+02   2.21e-02
  4.3875e+02   2.05e-02
  4.5518e+02   1.90e-02
  4.7222e+02   1.76e-02
  4.8989e+02   1.63e-02
  5.0823e+02   1.51e-02
  5.2726e+02   1.39e-02
  5.4699e+02   1.29e-02
  5.6747e+02   1.19e-02
  5.8871e+02   1.09e-02
  6.1075e+02   1.01e-02
  6.3361e+02   9.28e-03
  6.5733e+02   8.54e-03
  6.8194e+02   7.85e-03
  7.0746e+02   7.21e-03
  7.3395e+02   6.62e-03
  7.6142e+02   6.08e-03
  7.8992e+02   5.57e-03
  8.1949e+02   5.11e-03
  8.5017e+02   4.68e-03
  8.8199e+02   4.29e-03
  9.1501e+02   3.93e-03
  9.4926e+02   3.59e-03
  9.8479e+02   3.29e-03
  1.0217e+03   3.01e-03
  1.0599e+03   2.75e-03
  1.0996e+03   2.52e-03
  1.1407e+03   2.30e-03
  1.1834e+03   2.10e-03
  1.2277e+03   1.92e-03
  1.2737e+03   1.75e-03
  1.3214e+03   1.60e-03
  1.3708e+03   1.46e-03
  1.4222e+03   1.33e-03
  1.4754e+03   1.21e-03
  1.5306e+03   1.10e-03
  1.5879e+03   1.01e-03
  1.6474e+03   9.16e-04
  1.7090e+03   8.34e-04
  1.7730e+03   7.60e-04
  1.8394e+03   6.91e-04
  1.9082e+03   6.28e-04
  1.9797e+03   5.71e-04
  2.0538e+03   5.18e-04
  2.1306e+03   4.69e-04
  2.2104e+03   4.26e-04
  2.2931e+03   3.85e-04
  2.3790e+03   3.48e-04
  2.4680e+03   3.15e-04
  2.5604e+03   2.84e-04
  2.6563e+03   2.55e-04
  2.7557e+03   2.31e-04
  2.8589e+03   2.07e-04
  2.9659e+03   1.86e-04
  3.0769e+03   1.67e-04
  3.1921e+03   1.50e-04
  3.3116e+03   1.33e-04
  3.4355e+03   1.19e-04
  3.5641e+03   1.06e-04
  3.6976e+03   9.44e-05
  3.8360e+03   8.38e-05
  3.9796e+03   7.44e-05
  4.1285e+03   6.57e-05
  4.2831e+03   5.79e-05
  4.4434e+03   5.10e-05
  4.6097e+03   4.47e-05
  4.7823e+03   3.90e-05
  4.9613e+03   3.42e-05
  5.1470e+03   2.97e-05
  5.3397e+03   2.57e-05
  5.5396e+03   2.23e-05
  5.7470e+03   1.92e-05
  5.9621e+03   1.64e-05
  6.1853e+03   1.42e-05
  6.4168e+03   1.21e-05
  6.6570e+03   1.02e-05
  6.9062e+03   8.69e-06
  7.1647e+03   7.33e-06
  7.4329e+03   6.12e-06
  7.7112e+03   5.13e-06
  7.9998e+03   4.27e-06
  8.2993e+03   3.51e-06
  8.6100e+03   2.89e-06
  8.9323e+03   2.36e-06
  9.2666e+03   1.91e-06
  9.6135e+03   1.53e-06
  9.9734e+03   1.23e-06
  1.0347e+04   9.70e-07
  1.0734e+04   7.60e-07
  1.1136e+04   5.95e-07
  1.1553e+04   4.56e-07
  1.1985e+04   3.45e-07
  1.2434e+04   2.62e-07
  1.2899e+04   1.94e-07
  1.3382e+04   1.40e-07
  1.3883e+04   1.02e-07
  1.4403e+04   7.17e-08
  1.4942e+04   4.90e-08
  1.5501e+04   3.34e-08
  1.6081e+04   2.20e-08
  1.6683e+04   1.39e-08
  1.7308e+04   8.68e-09
  1.7956e+04   5.19e-09
  1.8628e+04   2.95e-09
  1.9325e+04   1.61e-09
  2.0049e+04   8.37e-10
  2.0799e+04   4.04e-10
  2.1578e+04   1.82e-10
  2.2386e+04   7.53e-11
  2.3224e+04   2.81e-11
  2.4093e+04   9.33e-12
  2.4995e+04   2.71e-12
  2.5930e+04   6.69e-13
  2.6901e+04   1.37e-13
  2.7908e+04   2.24e-14
  2.8953e+04   2.82e-15
  3.0037e+04   2.57e-16
  3.1161e+04   1.62e-17
  3.2327e+04   6.44e-19
  3.3537e+04   1.47e-20
  3.4793e+04   1.71e-22
  3.6095e+04   8.76e-25
  3.7446e+04   1.63e-27
  3.8848e+04   8.62e-31
  4.0302e+04   9.57e-35
  4.1811e+04   1.50e-39
  4.3376e+04   2.01e-45
  4.5000e+04   1.22e-47
