#  E [MeV]   Flux [# cm^{-2} s^{-1}  MeV^{-1}]
  3.0000e+04   1.71e-20
  3.0943e+04   1.64e-20
  3.1916e+04   1.58e-20
  3.2920e+04   1.52e-20
  3.3955e+04   1.47e-20
  3.5023e+04   1.41e-20
  3.6124e+04   1.36e-20
  3.7260e+04   1.31e-20
  3.8432e+04   1.26e-20
  3.9640e+04   1.21e-20
  4.0887e+04   1.16e-20
  4.2172e+04   1.12e-20
  4.3499e+04   1.08e-20
  4.4866e+04   1.03e-20
  4.6277e+04   9.94e-21
  4.7732e+04   9.55e-21
  4.9233e+04   9.17e-21
  5.0781e+04   8.81e-21
  5.2378e+04   8.46e-21
  5.4025e+04   8.12e-21
  5.5724e+04   7.80e-21
  5.7476e+04   7.48e-21
  5.9284e+04   7.18e-21
  6.1148e+04   6.89e-21
  6.3071e+04   6.61e-21
  6.5054e+04   6.34e-21
  6.7100e+04   6.08e-21
  6.9210e+04   5.82e-21
  7.1386e+04   5.58e-21
  7.3631e+04   5.35e-21
  7.5946e+04   5.13e-21
  7.8334e+04   4.91e-21
  8.0797e+04   4.71e-21
  8.3338e+04   4.51e-21
  8.5959e+04   4.32e-21
  8.8662e+04   4.13e-21
  9.1450e+04   3.96e-21
  9.4325e+04   3.79e-21
  9.7291e+04   3.62e-21
  1.0035e+05   3.47e-21
  1.0351e+05   3.32e-21
  1.0676e+05   3.17e-21
  1.1012e+05   3.03e-21
  1.1358e+05   2.90e-21
  1.1715e+05   2.77e-21
  1.2084e+05   2.65e-21
  1.2464e+05   2.53e-21
  1.2856e+05   2.42e-21
  1.3260e+05   2.31e-21
  1.3677e+05   2.21e-21
  1.4107e+05   2.11e-21
  1.4550e+05   2.02e-21
  1.5008e+05   1.93e-21
  1.5480e+05   1.84e-21
  1.5967e+05   1.76e-21
  1.6469e+05   1.68e-21
  1.6987e+05   1.60e-21
  1.7521e+05   1.53e-21
  1.8072e+05   1.46e-21
  1.8640e+05   1.39e-21
  1.9226e+05   1.33e-21
  1.9831e+05   1.27e-21
  2.0454e+05   1.21e-21
  2.1097e+05   1.15e-21
  2.1761e+05   1.10e-21
  2.2445e+05   1.05e-21
  2.3151e+05   9.99e-22
  2.3879e+05   9.52e-22
  2.4630e+05   9.08e-22
  2.5404e+05   8.66e-22
  2.6203e+05   8.26e-22
  2.7027e+05   7.87e-22
  2.7877e+05   7.50e-22
  2.8753e+05   7.15e-22
  2.9657e+05   6.81e-22
  3.0590e+05   6.49e-22
  3.1552e+05   6.18e-22
  3.2544e+05   5.89e-22
  3.3567e+05   5.62e-22
  3.4623e+05   5.35e-22
  3.5712e+05   5.10e-22
  3.6835e+05   4.86e-22
  3.7993e+05   4.62e-22
  3.9188e+05   4.40e-22
  4.0420e+05   4.20e-22
  4.1691e+05   4.00e-22
  4.3002e+05   3.80e-22
  4.4354e+05   3.62e-22
  4.5749e+05   3.45e-22
  4.7187e+05   3.29e-22
  4.8671e+05   3.13e-22
  5.0202e+05   2.98e-22
  5.1780e+05   2.84e-22
  5.3409e+05   2.71e-22
  5.5088e+05   2.58e-22
  5.6820e+05   2.46e-22
  5.8607e+05   2.34e-22
  6.0450e+05   2.23e-22
  6.2351e+05   2.12e-22
  6.4311e+05   2.02e-22
  6.6334e+05   1.93e-22
  6.8419e+05   1.84e-22
  7.0571e+05   1.75e-22
  7.2790e+05   1.67e-22
  7.5079e+05   1.59e-22
  7.7440e+05   1.52e-22
  7.9875e+05   1.45e-22
  8.2387e+05   1.38e-22
  8.4977e+05   1.32e-22
  8.7649e+05   1.26e-22
  9.0405e+05   1.20e-22
  9.3248e+05   1.15e-22
  9.6180e+05   1.10e-22
  9.9205e+05   1.05e-22
  1.0232e+06   9.99e-23
  1.0554e+06   9.55e-23
  1.0886e+06   9.12e-23
  1.1228e+06   8.72e-23
  1.1581e+06   8.33e-23
  1.1946e+06   7.97e-23
  1.2321e+06   7.61e-23
  1.2709e+06   7.29e-23
  1.3108e+06   6.97e-23
  1.3521e+06   6.67e-23
  1.3946e+06   6.39e-23
  1.4384e+06   6.11e-23
  1.4837e+06   5.85e-23
  1.5303e+06   5.60e-23
  1.5784e+06   5.37e-23
  1.6281e+06   5.14e-23
  1.6793e+06   4.93e-23
  1.7321e+06   4.72e-23
  1.7865e+06   4.52e-23
  1.8427e+06   4.34e-23
  1.9006e+06   4.16e-23
  1.9604e+06   3.98e-23
  2.0221e+06   3.82e-23
  2.0856e+06   3.66e-23
  2.1512e+06   3.51e-23
  2.2189e+06   3.37e-23
  2.2886e+06   3.23e-23
  2.3606e+06   3.10e-23
  2.4348e+06   2.97e-23
  2.5114e+06   2.85e-23
  2.5904e+06   2.74e-23
  2.6718e+06   2.62e-23
  2.7558e+06   2.52e-23
  2.8425e+06   2.42e-23
  2.9319e+06   2.32e-23
  3.0241e+06   2.22e-23
  3.1192e+06   2.13e-23
  3.2173e+06   2.05e-23
  3.3184e+06   1.96e-23
  3.4228e+06   1.88e-23
  3.5304e+06   1.81e-23
  3.6414e+06   1.73e-23
  3.7559e+06   1.66e-23
  3.8740e+06   1.59e-23
  3.9958e+06   1.52e-23
  4.1215e+06   1.46e-23
  4.2511e+06   1.40e-23
  4.3848e+06   1.34e-23
  4.5227e+06   1.28e-23
  4.6649e+06   1.22e-23
  4.8116e+06   1.17e-23
  4.9629e+06   1.12e-23
  5.1189e+06   1.07e-23
  5.2799e+06   1.02e-23
  5.4459e+06   9.74e-24
  5.6171e+06   9.29e-24
  5.7938e+06   8.86e-24
  5.9760e+06   8.45e-24
  6.1639e+06   8.06e-24
  6.3577e+06   7.67e-24
  6.5576e+06   7.30e-24
  6.7638e+06   6.95e-24
  6.9765e+06   6.61e-24
  7.1959e+06   6.28e-24
  7.4222e+06   5.96e-24
  7.6556e+06   5.65e-24
  7.8963e+06   5.36e-24
  8.1446e+06   5.08e-24
  8.4007e+06   4.81e-24
  8.6649e+06   4.55e-24
  8.9373e+06   4.30e-24
  9.2184e+06   4.06e-24
  9.5082e+06   3.83e-24
  9.8072e+06   3.61e-24
  1.0116e+07   3.39e-24
  1.0434e+07   3.19e-24
  1.0762e+07   3.00e-24
  1.1100e+07   2.81e-24
  1.1449e+07   2.63e-24
  1.1809e+07   2.45e-24
  1.2181e+07   2.29e-24
  1.2564e+07   2.13e-24
  1.2959e+07   1.97e-24
  1.3366e+07   1.83e-24
  1.3786e+07   1.69e-24
  1.4220e+07   1.56e-24
