#  E [MeV]   Flux [# cm^{-2} s^{-1}  MeV^{-1}]
  3.0000e+04   7.04e-26
  3.0962e+04   6.78e-26
  3.1955e+04   6.53e-26
  3.2979e+04   6.28e-26
  3.4037e+04   6.05e-26
  3.5128e+04   5.82e-26
  3.6254e+04   5.60e-26
  3.7417e+04   5.38e-26
  3.8616e+04   5.18e-26
  3.9855e+04   4.98e-26
  4.1132e+04   4.78e-26
  4.2451e+04   4.60e-26
  4.3812e+04   4.42e-26
  4.5217e+04   4.24e-26
  4.6667e+04   4.08e-26
  4.8163e+04   3.91e-26
  4.9707e+04   3.76e-26
  5.1301e+04   3.61e-26
  5.2946e+04   3.46e-26
  5.4644e+04   3.32e-26
  5.6396e+04   3.19e-26
  5.8204e+04   3.06e-26
  6.0070e+04   2.93e-26
  6.1996e+04   2.81e-26
  6.3984e+04   2.69e-26
  6.6035e+04   2.58e-26
  6.8153e+04   2.47e-26
  7.0338e+04   2.37e-26
  7.2593e+04   2.27e-26
  7.4921e+04   2.17e-26
  7.7323e+04   2.08e-26
  7.9802e+04   1.99e-26
  8.2361e+04   1.91e-26
  8.5002e+04   1.82e-26
  8.7727e+04   1.74e-26
  9.0540e+04   1.67e-26
  9.3443e+04   1.60e-26
  9.6439e+04   1.53e-26
  9.9531e+04   1.46e-26
  1.0272e+05   1.39e-26
  1.0602e+05   1.33e-26
  1.0942e+05   1.27e-26
  1.1292e+05   1.21e-26
  1.1654e+05   1.16e-26
  1.2028e+05   1.11e-26
  1.2414e+05   1.06e-26
  1.2812e+05   1.01e-26
  1.3223e+05   9.62e-27
  1.3646e+05   9.17e-27
  1.4084e+05   8.75e-27
  1.4536e+05   8.34e-27
  1.5002e+05   7.95e-27
  1.5483e+05   7.58e-27
  1.5979e+05   7.22e-27
  1.6491e+05   6.88e-27
  1.7020e+05   6.55e-27
  1.7566e+05   6.24e-27
  1.8129e+05   5.94e-27
  1.8710e+05   5.65e-27
  1.9310e+05   5.38e-27
  1.9929e+05   5.12e-27
  2.0568e+05   4.87e-27
  2.1228e+05   4.63e-27
  2.1909e+05   4.40e-27
  2.2611e+05   4.18e-27
  2.3336e+05   3.97e-27
  2.4084e+05   3.77e-27
  2.4856e+05   3.58e-27
  2.5653e+05   3.40e-27
  2.6476e+05   3.23e-27
  2.7325e+05   3.06e-27
  2.8201e+05   2.91e-27
  2.9105e+05   2.76e-27
  3.0038e+05   2.61e-27
  3.1002e+05   2.48e-27
  3.1996e+05   2.35e-27
  3.3021e+05   2.22e-27
  3.4080e+05   2.10e-27
  3.5173e+05   1.99e-27
  3.6301e+05   1.88e-27
  3.7465e+05   1.78e-27
  3.8666e+05   1.68e-27
  3.9905e+05   1.59e-27
  4.1185e+05   1.51e-27
  4.2506e+05   1.42e-27
  4.3868e+05   1.34e-27
  4.5275e+05   1.27e-27
  4.6727e+05   1.20e-27
  4.8225e+05   1.13e-27
  4.9771e+05   1.07e-27
  5.1367e+05   1.01e-27
  5.3014e+05   9.50e-28
  5.4714e+05   8.96e-28
  5.6468e+05   8.45e-28
  5.8278e+05   7.97e-28
  6.0147e+05   7.51e-28
  6.2075e+05   7.09e-28
  6.4066e+05   6.68e-28
  6.6120e+05   6.30e-28
  6.8240e+05   5.94e-28
  7.0428e+05   5.60e-28
  7.2686e+05   5.28e-28
  7.5017e+05   4.98e-28
  7.7422e+05   4.70e-28
  7.9904e+05   4.44e-28
  8.2466e+05   4.19e-28
  8.5110e+05   3.95e-28
  8.7839e+05   3.73e-28
  9.0656e+05   3.52e-28
  9.3562e+05   3.33e-28
  9.6562e+05   3.14e-28
  9.9658e+05   2.97e-28
  1.0285e+06   2.81e-28
  1.0615e+06   2.66e-28
  1.0956e+06   2.52e-28
  1.1307e+06   2.38e-28
  1.1669e+06   2.26e-28
  1.2043e+06   2.14e-28
  1.2430e+06   2.02e-28
  1.2828e+06   1.92e-28
  1.3239e+06   1.82e-28
  1.3664e+06   1.73e-28
  1.4102e+06   1.64e-28
  1.4554e+06   1.56e-28
  1.5021e+06   1.48e-28
  1.5502e+06   1.41e-28
  1.6000e+06   1.34e-28
  1.6513e+06   1.27e-28
  1.7042e+06   1.21e-28
  1.7588e+06   1.15e-28
  1.8152e+06   1.10e-28
  1.8734e+06   1.05e-28
  1.9335e+06   9.98e-29
  1.9955e+06   9.51e-29
  2.0595e+06   9.06e-29
  2.1255e+06   8.64e-29
  2.1937e+06   8.24e-29
  2.2640e+06   7.85e-29
  2.3366e+06   7.49e-29
  2.4115e+06   7.14e-29
  2.4888e+06   6.82e-29
  2.5686e+06   6.50e-29
  2.6510e+06   6.20e-29
  2.7360e+06   5.92e-29
  2.8237e+06   5.64e-29
  2.9142e+06   5.38e-29
  3.0077e+06   5.13e-29
  3.1041e+06   4.89e-29
  3.2036e+06   4.66e-29
  3.3064e+06   4.44e-29
  3.4124e+06   4.23e-29
  3.5218e+06   4.03e-29
  3.6347e+06   3.83e-29
  3.7512e+06   3.65e-29
  3.8715e+06   3.47e-29
  3.9957e+06   3.29e-29
  4.1238e+06   3.13e-29
  4.2560e+06   2.97e-29
  4.3924e+06   2.81e-29
  4.5333e+06   2.66e-29
  4.6786e+06   2.52e-29
  4.8286e+06   2.38e-29
  4.9835e+06   2.25e-29
  5.1433e+06   2.12e-29
  5.3082e+06   2.00e-29
  5.4784e+06   1.88e-29
  5.6540e+06   1.76e-29
  5.8353e+06   1.65e-29
  6.0224e+06   1.55e-29
  6.2155e+06   1.45e-29
  6.4148e+06   1.35e-29
  6.6205e+06   1.26e-29
  6.8327e+06   1.17e-29
  7.0518e+06   1.09e-29
  7.2779e+06   1.01e-29
  7.5113e+06   9.33e-30
  7.7521e+06   8.60e-30
  8.0007e+06   7.90e-30
  8.2572e+06   7.24e-30
  8.5219e+06   6.61e-30
  8.7952e+06   6.02e-30
  9.0772e+06   5.47e-30
  9.3682e+06   4.94e-30
  9.6686e+06   4.45e-30
  9.9786e+06   3.99e-30
  1.0299e+07   3.56e-30
  1.0629e+07   3.16e-30
  1.0970e+07   2.79e-30
  1.1321e+07   2.45e-30
  1.1684e+07   2.13e-30
  1.2059e+07   1.85e-30
  1.2446e+07   1.58e-30
  1.2845e+07   1.35e-30
  1.3256e+07   1.14e-30
  1.3681e+07   9.49e-31
  1.4120e+07   7.83e-31
  1.4573e+07   6.38e-31
  1.5040e+07   5.13e-31
  1.5522e+07   4.08e-31
  1.6020e+07   3.21e-31
