#  E [MeV]   Flux [# cm^{-2} s^{-1}  MeV^{-1}]
  3.0000e+04   2.23e-25
  3.1141e+04   2.14e-25
  3.2326e+04   2.05e-25
  3.3556e+04   1.97e-25
  3.4832e+04   1.89e-25
  3.6157e+04   1.81e-25
  3.7533e+04   1.74e-25
  3.8961e+04   1.67e-25
  4.0443e+04   1.60e-25
  4.1982e+04   1.53e-25
  4.3579e+04   1.47e-25
  4.5237e+04   1.41e-25
  4.6958e+04   1.35e-25
  4.8744e+04   1.29e-25
  5.0598e+04   1.24e-25
  5.2523e+04   1.19e-25
  5.4521e+04   1.14e-25
  5.6596e+04   1.09e-25
  5.8749e+04   1.04e-25
  6.0984e+04   1.00e-25
  6.3304e+04   9.58e-26
  6.5712e+04   9.17e-26
  6.8212e+04   8.78e-26
  7.0807e+04   8.40e-26
  7.3500e+04   8.04e-26
  7.6297e+04   7.70e-26
  7.9199e+04   7.36e-26
  8.2212e+04   7.04e-26
  8.5340e+04   6.74e-26
  8.8586e+04   6.44e-26
  9.1956e+04   6.16e-26
  9.5455e+04   5.89e-26
  9.9086e+04   5.62e-26
  1.0286e+05   5.37e-26
  1.0677e+05   5.13e-26
  1.1083e+05   4.90e-26
  1.1505e+05   4.68e-26
  1.1942e+05   4.47e-26
  1.2397e+05   4.27e-26
  1.2868e+05   4.07e-26
  1.3358e+05   3.88e-26
  1.3866e+05   3.70e-26
  1.4394e+05   3.53e-26
  1.4941e+05   3.36e-26
  1.5509e+05   3.21e-26
  1.6100e+05   3.05e-26
  1.6712e+05   2.91e-26
  1.7348e+05   2.77e-26
  1.8008e+05   2.63e-26
  1.8693e+05   2.50e-26
  1.9404e+05   2.38e-26
  2.0142e+05   2.26e-26
  2.0908e+05   2.14e-26
  2.1704e+05   2.04e-26
  2.2529e+05   1.93e-26
  2.3387e+05   1.83e-26
  2.4276e+05   1.74e-26
  2.5200e+05   1.64e-26
  2.6158e+05   1.56e-26
  2.7154e+05   1.47e-26
  2.8187e+05   1.39e-26
  2.9259e+05   1.32e-26
  3.0372e+05   1.25e-26
  3.1527e+05   1.18e-26
  3.2727e+05   1.11e-26
  3.3972e+05   1.05e-26
  3.5264e+05   9.85e-27
  3.6606e+05   9.27e-27
  3.7998e+05   8.72e-27
  3.9444e+05   8.20e-27
  4.0945e+05   7.70e-27
  4.2502e+05   7.23e-27
  4.4119e+05   6.78e-27
  4.5798e+05   6.36e-27
  4.7540e+05   5.96e-27
  4.9348e+05   5.58e-27
  5.1226e+05   5.22e-27
  5.3175e+05   4.88e-27
  5.5198e+05   4.56e-27
  5.7297e+05   4.26e-27
  5.9477e+05   3.98e-27
  6.1740e+05   3.71e-27
  6.4089e+05   3.46e-27
  6.6527e+05   3.22e-27
  6.9058e+05   3.00e-27
  7.1685e+05   2.79e-27
  7.4412e+05   2.60e-27
  7.7243e+05   2.41e-27
  8.0181e+05   2.24e-27
  8.3232e+05   2.08e-27
  8.6398e+05   1.93e-27
  8.9685e+05   1.80e-27
  9.3097e+05   1.67e-27
  9.6638e+05   1.55e-27
  1.0031e+06   1.43e-27
  1.0413e+06   1.33e-27
  1.0809e+06   1.23e-27
  1.1220e+06   1.14e-27
  1.1647e+06   1.06e-27
  1.2090e+06   9.80e-28
  1.2550e+06   9.08e-28
  1.3028e+06   8.40e-28
  1.3523e+06   7.77e-28
  1.4038e+06   7.19e-28
  1.4572e+06   6.65e-28
  1.5126e+06   6.14e-28
  1.5702e+06   5.68e-28
  1.6299e+06   5.25e-28
  1.6919e+06   4.85e-28
  1.7563e+06   4.48e-28
  1.8231e+06   4.13e-28
  1.8925e+06   3.81e-28
  1.9645e+06   3.52e-28
  2.0392e+06   3.25e-28
  2.1168e+06   2.99e-28
  2.1973e+06   2.75e-28
  2.2809e+06   2.54e-28
  2.3677e+06   2.33e-28
  2.4577e+06   2.15e-28
  2.5512e+06   1.97e-28
  2.6483e+06   1.81e-28
  2.7490e+06   1.66e-28
  2.8536e+06   1.52e-28
  2.9622e+06   1.39e-28
  3.0749e+06   1.28e-28
  3.1918e+06   1.17e-28
  3.3133e+06   1.07e-28
  3.4393e+06   9.72e-29
  3.5702e+06   8.88e-29
  3.7060e+06   8.09e-29
  3.8470e+06   7.34e-29
  3.9933e+06   6.68e-29
  4.1452e+06   6.07e-29
  4.3029e+06   5.49e-29
  4.4666e+06   4.98e-29
  4.6366e+06   4.50e-29
  4.8129e+06   4.05e-29
  4.9960e+06   3.66e-29
  5.1861e+06   3.29e-29
  5.3834e+06   2.95e-29
  5.5882e+06   2.64e-29
  5.8008e+06   2.37e-29
  6.0215e+06   2.11e-29
  6.2506e+06   1.88e-29
  6.4883e+06   1.67e-29
  6.7352e+06   1.48e-29
  6.9914e+06   1.31e-29
  7.2574e+06   1.16e-29
  7.5335e+06   1.01e-29
  7.8201e+06   8.90e-30
  8.1176e+06   7.80e-30
  8.4264e+06   6.79e-30
  8.7470e+06   5.89e-30
  9.0797e+06   5.11e-30
  9.4251e+06   4.40e-30
  9.7837e+06   3.77e-30
  1.0156e+07   3.23e-30
  1.0542e+07   2.74e-30
  1.0943e+07   2.31e-30
  1.1360e+07   1.95e-30
  1.1792e+07   1.63e-30
  1.2240e+07   1.34e-30
  1.2706e+07   1.11e-30
  1.3189e+07   9.08e-31
  1.3691e+07   7.32e-31
  1.4212e+07   5.90e-31
  1.4753e+07   4.68e-31
  1.5314e+07   3.64e-31
  1.5897e+07   2.83e-31
  1.6501e+07   2.16e-31
  1.7129e+07   1.61e-31
  1.7781e+07   1.18e-31
  1.8457e+07   8.50e-32
  1.9159e+07   5.91e-32
  1.9888e+07   4.04e-32
  2.0645e+07   2.66e-32
  2.1430e+07   1.68e-32
  2.2245e+07   1.02e-32
  2.3092e+07   5.86e-33
  2.3970e+07   3.15e-33
  2.4882e+07   1.59e-33
  2.5829e+07   7.32e-34
  2.6811e+07   3.03e-34
  2.7831e+07   1.12e-34
  2.8890e+07   3.55e-35
  2.9989e+07   9.41e-36
  3.1130e+07   2.03e-36
  3.2314e+07   3.41e-37
  3.3544e+07   4.13e-38
  3.4820e+07   3.42e-39
  3.6144e+07   1.77e-40
  3.7519e+07   4.99e-42
  3.8947e+07   6.77e-44
  4.0428e+07   3.74e-46
  4.1966e+07   6.07e-49
  4.3563e+07   2.24e-52
  4.5220e+07   1.32e-56
  4.6941e+07   5.52e-62
  4.8726e+07   7.84e-69
  5.0580e+07   3.79e-70
