#  E [GeV]   # per interaction  [GeV^{-1}]
  3.0000e+01   6.87e-01
  3.0943e+01   6.60e-01
  3.1916e+01   6.34e-01
  3.2920e+01   6.09e-01
  3.3955e+01   5.84e-01
  3.5023e+01   5.61e-01
  3.6124e+01   5.39e-01
  3.7260e+01   5.17e-01
  3.8432e+01   4.97e-01
  3.9640e+01   4.77e-01
  4.0887e+01   4.58e-01
  4.2172e+01   4.39e-01
  4.3499e+01   4.21e-01
  4.4866e+01   4.04e-01
  4.6277e+01   3.88e-01
  4.7732e+01   3.72e-01
  4.9233e+01   3.57e-01
  5.0781e+01   3.42e-01
  5.2378e+01   3.28e-01
  5.4025e+01   3.15e-01
  5.5724e+01   3.02e-01
  5.7476e+01   2.89e-01
  5.9284e+01   2.77e-01
  6.1148e+01   2.66e-01
  6.3071e+01   2.55e-01
  6.5054e+01   2.44e-01
  6.7100e+01   2.34e-01
  6.9210e+01   2.24e-01
  7.1386e+01   2.14e-01
  7.3631e+01   2.05e-01
  7.5946e+01   1.97e-01
  7.8334e+01   1.88e-01
  8.0797e+01   1.80e-01
  8.3338e+01   1.72e-01
  8.5959e+01   1.65e-01
  8.8662e+01   1.58e-01
  9.1450e+01   1.51e-01
  9.4325e+01   1.44e-01
  9.7291e+01   1.38e-01
  1.0035e+02   1.32e-01
  1.0351e+02   1.26e-01
  1.0676e+02   1.20e-01
  1.1012e+02   1.15e-01
  1.1358e+02   1.10e-01
  1.1715e+02   1.05e-01
  1.2084e+02   9.99e-02
  1.2464e+02   9.53e-02
  1.2856e+02   9.09e-02
  1.3260e+02   8.66e-02
  1.3677e+02   8.25e-02
  1.4107e+02   7.85e-02
  1.4550e+02   7.47e-02
  1.5008e+02   7.11e-02
  1.5480e+02   6.76e-02
  1.5967e+02   6.42e-02
  1.6469e+02   6.10e-02
  1.6987e+02   5.79e-02
  1.7521e+02   5.49e-02
  1.8072e+02   5.20e-02
  1.8640e+02   4.93e-02
  1.9226e+02   4.67e-02
  1.9831e+02   4.42e-02
  2.0454e+02   4.18e-02
  2.1097e+02   3.95e-02
  2.1761e+02   3.73e-02
  2.2445e+02   3.53e-02
  2.3151e+02   3.33e-02
  2.3879e+02   3.14e-02
  2.4630e+02   2.97e-02
  2.5404e+02   2.80e-02
  2.6203e+02   2.64e-02
  2.7027e+02   2.49e-02
  2.7877e+02   2.34e-02
  2.8753e+02   2.20e-02
  2.9657e+02   2.07e-02
  3.0590e+02   1.95e-02
  3.1552e+02   1.83e-02
  3.2544e+02   1.72e-02
  3.3567e+02   1.61e-02
  3.4623e+02   1.51e-02
  3.5712e+02   1.41e-02
  3.6835e+02   1.32e-02
  3.7993e+02   1.23e-02
  3.9188e+02   1.15e-02
  4.0420e+02   1.08e-02
  4.1691e+02   1.00e-02
  4.3002e+02   9.34e-03
  4.4354e+02   8.69e-03
  4.5749e+02   8.08e-03
  4.7187e+02   7.50e-03
  4.8671e+02   6.96e-03
  5.0202e+02   6.46e-03
  5.1780e+02   5.98e-03
  5.3409e+02   5.54e-03
  5.5088e+02   5.12e-03
  5.6820e+02   4.73e-03
  5.8607e+02   4.37e-03
  6.0450e+02   4.03e-03
  6.2351e+02   3.72e-03
  6.4311e+02   3.42e-03
  6.6334e+02   3.15e-03
  6.8419e+02   2.90e-03
  7.0571e+02   2.66e-03
  7.2790e+02   2.44e-03
  7.5079e+02   2.23e-03
  7.7440e+02   2.05e-03
  7.9875e+02   1.88e-03
  8.2387e+02   1.72e-03
  8.4977e+02   1.57e-03
  8.7649e+02   1.43e-03
  9.0405e+02   1.31e-03
  9.3248e+02   1.19e-03
  9.6180e+02   1.09e-03
  9.9205e+02   9.91e-04
  1.0232e+03   9.02e-04
  1.0554e+03   8.19e-04
  1.0886e+03   7.46e-04
  1.1228e+03   6.78e-04
  1.1581e+03   6.15e-04
  1.1946e+03   5.57e-04
  1.2321e+03   5.06e-04
  1.2709e+03   4.59e-04
  1.3108e+03   4.14e-04
  1.3521e+03   3.75e-04
  1.3946e+03   3.39e-04
  1.4384e+03   3.06e-04
  1.4837e+03   2.75e-04
  1.5303e+03   2.48e-04
  1.5784e+03   2.24e-04
  1.6281e+03   2.01e-04
  1.6793e+03   1.80e-04
  1.7321e+03   1.62e-04
  1.7865e+03   1.46e-04
  1.8427e+03   1.30e-04
  1.9006e+03   1.16e-04
  1.9604e+03   1.05e-04
  2.0221e+03   9.35e-05
  2.0856e+03   8.31e-05
  2.1512e+03   7.42e-05
  2.2189e+03   6.63e-05
  2.2886e+03   5.89e-05
  2.3606e+03   5.20e-05
  2.4348e+03   4.64e-05
  2.5114e+03   4.13e-05
  2.5904e+03   3.64e-05
  2.6718e+03   3.20e-05
  2.7558e+03   2.85e-05
  2.8425e+03   2.51e-05
  2.9319e+03   2.19e-05
  3.0241e+03   1.92e-05
  3.1192e+03   1.70e-05
  3.2173e+03   1.49e-05
  3.3184e+03   1.29e-05
  3.4228e+03   1.13e-05
  3.5304e+03   9.90e-06
  3.6414e+03   8.59e-06
  3.7559e+03   7.38e-06
  3.8740e+03   6.47e-06
  3.9958e+03   5.62e-06
  4.1215e+03   4.83e-06
  4.2511e+03   4.14e-06
  4.3848e+03   3.60e-06
  4.5227e+03   3.10e-06
  4.6649e+03   2.64e-06
  4.8116e+03   2.26e-06
  4.9629e+03   1.95e-06
  5.1189e+03   1.66e-06
  5.2799e+03   1.40e-06
  5.4459e+03   1.20e-06
  5.6171e+03   1.03e-06
  5.7938e+03   8.71e-07
  5.9760e+03   7.30e-07
  6.1639e+03   6.28e-07
  6.3577e+03   5.34e-07
  6.5576e+03   4.48e-07
  6.7638e+03   3.78e-07
  6.9765e+03   3.24e-07
  7.1959e+03   2.74e-07
  7.4222e+03   2.29e-07
  7.6556e+03   1.95e-07
  7.8963e+03   1.66e-07
  8.1446e+03   1.40e-07
  8.4007e+03   1.16e-07
  8.6649e+03   9.96e-08
  8.9373e+03   8.46e-08
  9.2184e+03   7.12e-08
  9.5082e+03   5.98e-08
  9.8072e+03   5.09e-08
  1.0116e+04   4.29e-08
  1.0434e+04   3.58e-08
  1.0762e+04   2.98e-08
  1.1100e+04   2.47e-08
  1.1449e+04   2.03e-08
  1.1809e+04   1.64e-08
  1.2181e+04   1.32e-08
  1.2564e+04   1.05e-08
  1.2959e+04   8.17e-09
  1.3366e+04   6.29e-09
  1.3786e+04   4.87e-09
  1.4220e+04   3.71e-09
