#  E [MeV]   Flux [# cm^{-2} s^{-1}  MeV^{-1}]
  3.0000e+04   4.83e-20
  3.1033e+04   4.63e-20
  3.2102e+04   4.43e-20
  3.3207e+04   4.25e-20
  3.4350e+04   4.07e-20
  3.5533e+04   3.89e-20
  3.6757e+04   3.73e-20
  3.8022e+04   3.57e-20
  3.9332e+04   3.42e-20
  4.0686e+04   3.27e-20
  4.2087e+04   3.13e-20
  4.3536e+04   2.99e-20
  4.5035e+04   2.86e-20
  4.6586e+04   2.74e-20
  4.8190e+04   2.62e-20
  4.9850e+04   2.50e-20
  5.1566e+04   2.39e-20
  5.3342e+04   2.29e-20
  5.5178e+04   2.19e-20
  5.7078e+04   2.09e-20
  5.9044e+04   2.00e-20
  6.1077e+04   1.91e-20
  6.3180e+04   1.83e-20
  6.5356e+04   1.74e-20
  6.7606e+04   1.67e-20
  6.9934e+04   1.59e-20
  7.2342e+04   1.52e-20
  7.4833e+04   1.45e-20
  7.7410e+04   1.38e-20
  8.0075e+04   1.32e-20
  8.2833e+04   1.26e-20
  8.5685e+04   1.20e-20
  8.8635e+04   1.15e-20
  9.1687e+04   1.10e-20
  9.4844e+04   1.05e-20
  9.8110e+04   9.97e-21
  1.0149e+05   9.50e-21
  1.0498e+05   9.06e-21
  1.0860e+05   8.64e-21
  1.1234e+05   8.23e-21
  1.1621e+05   7.84e-21
  1.2021e+05   7.47e-21
  1.2435e+05   7.11e-21
  1.2863e+05   6.77e-21
  1.3306e+05   6.45e-21
  1.3764e+05   6.14e-21
  1.4238e+05   5.84e-21
  1.4728e+05   5.55e-21
  1.5235e+05   5.28e-21
  1.5760e+05   5.02e-21
  1.6302e+05   4.77e-21
  1.6864e+05   4.53e-21
  1.7445e+05   4.30e-21
  1.8045e+05   4.08e-21
  1.8667e+05   3.87e-21
  1.9309e+05   3.67e-21
  1.9974e+05   3.48e-21
  2.0662e+05   3.30e-21
  2.1373e+05   3.12e-21
  2.2109e+05   2.95e-21
  2.2871e+05   2.79e-21
  2.3658e+05   2.64e-21
  2.4473e+05   2.49e-21
  2.5316e+05   2.35e-21
  2.6187e+05   2.22e-21
  2.7089e+05   2.09e-21
  2.8022e+05   1.97e-21
  2.8987e+05   1.85e-21
  2.9985e+05   1.74e-21
  3.1017e+05   1.63e-21
  3.2085e+05   1.53e-21
  3.3190e+05   1.43e-21
  3.4333e+05   1.34e-21
  3.5515e+05   1.26e-21
  3.6738e+05   1.17e-21
  3.8003e+05   1.10e-21
  3.9312e+05   1.03e-21
  4.0665e+05   9.57e-22
  4.2066e+05   8.92e-22
  4.3514e+05   8.32e-22
  4.5013e+05   7.75e-22
  4.6562e+05   7.21e-22
  4.8166e+05   6.71e-22
  4.9824e+05   6.24e-22
  5.1540e+05   5.80e-22
  5.3315e+05   5.38e-22
  5.5150e+05   4.99e-22
  5.7050e+05   4.63e-22
  5.9014e+05   4.28e-22
  6.1046e+05   3.96e-22
  6.3148e+05   3.66e-22
  6.5322e+05   3.38e-22
  6.7572e+05   3.12e-22
  6.9898e+05   2.88e-22
  7.2305e+05   2.66e-22
  7.4795e+05   2.45e-22
  7.7371e+05   2.25e-22
  8.0035e+05   2.07e-22
  8.2791e+05   1.91e-22
  8.5641e+05   1.75e-22
  8.8590e+05   1.61e-22
  9.1641e+05   1.48e-22
  9.4796e+05   1.36e-22
  9.8061e+05   1.25e-22
  1.0144e+06   1.14e-22
  1.0493e+06   1.05e-22
  1.0854e+06   9.59e-23
  1.1228e+06   8.79e-23
  1.1615e+06   8.04e-23
  1.2015e+06   7.35e-23
  1.2428e+06   6.72e-23
  1.2856e+06   6.14e-23
  1.3299e+06   5.60e-23
  1.3757e+06   5.12e-23
  1.4231e+06   4.67e-23
  1.4721e+06   4.25e-23
  1.5228e+06   3.87e-23
  1.5752e+06   3.53e-23
  1.6294e+06   3.21e-23
  1.6855e+06   2.92e-23
  1.7436e+06   2.65e-23
  1.8036e+06   2.41e-23
  1.8657e+06   2.18e-23
  1.9300e+06   1.98e-23
  1.9964e+06   1.79e-23
  2.0652e+06   1.62e-23
  2.1363e+06   1.46e-23
  2.2098e+06   1.32e-23
  2.2859e+06   1.19e-23
  2.3646e+06   1.07e-23
  2.4461e+06   9.66e-24
  2.5303e+06   8.67e-24
  2.6174e+06   7.76e-24
  2.7075e+06   6.94e-24
  2.8008e+06   6.22e-24
  2.8972e+06   5.54e-24
  2.9970e+06   4.92e-24
  3.1002e+06   4.39e-24
  3.2069e+06   3.90e-24
  3.3173e+06   3.44e-24
  3.4316e+06   3.05e-24
  3.5497e+06   2.70e-24
  3.6720e+06   2.37e-24
  3.7984e+06   2.08e-24
  3.9292e+06   1.84e-24
  4.0645e+06   1.61e-24
  4.2044e+06   1.39e-24
  4.3492e+06   1.22e-24
  4.4990e+06   1.06e-24
  4.6539e+06   9.19e-25
  4.8141e+06   7.94e-25
  4.9799e+06   6.88e-25
  5.1514e+06   5.90e-25
  5.3288e+06   5.01e-25
  5.5123e+06   4.32e-25
  5.7021e+06   3.68e-25
  5.8984e+06   3.10e-25
  6.1015e+06   2.64e-25
  6.3116e+06   2.24e-25
  6.5289e+06   1.87e-25
  6.7538e+06   1.56e-25
  6.9863e+06   1.31e-25
  7.2269e+06   1.09e-25
  7.4757e+06   8.94e-26
  7.7331e+06   7.45e-26
  7.9994e+06   6.15e-26
  8.2749e+06   4.99e-26
  8.5598e+06   4.06e-26
  8.8546e+06   3.32e-26
  9.1594e+06   2.67e-26
  9.4748e+06   2.11e-26
  9.8011e+06   1.71e-26
  1.0139e+07   1.36e-26
  1.0488e+07   1.06e-26
  1.0849e+07   8.35e-27
  1.1222e+07   6.56e-27
  1.1609e+07   5.06e-27
  1.2009e+07   3.86e-27
  1.2422e+07   2.98e-27
  1.2850e+07   2.25e-27
  1.3292e+07   1.67e-27
  1.3750e+07   1.25e-27
  1.4223e+07   9.18e-28
  1.4713e+07   6.59e-28
  1.5220e+07   4.69e-28
  1.5744e+07   3.31e-28
  1.6286e+07   2.27e-28
  1.6847e+07   1.52e-28
  1.7427e+07   9.99e-29
  1.8027e+07   6.34e-29
  1.8648e+07   3.87e-29
  1.9290e+07   2.27e-29
  1.9954e+07   1.27e-29
  2.0641e+07   6.75e-30
  2.1352e+07   3.35e-30
  2.2087e+07   1.55e-30
  2.2848e+07   6.61e-31
  2.3634e+07   2.55e-31
  2.4448e+07   9.06e-32
  2.5290e+07   2.85e-32
