#  E [GeV]   # per interaction  [GeV^{-1}]
  3.0000e+01   3.07e-01
  3.0675e+01   2.96e-01
  3.1366e+01   2.85e-01
  3.2072e+01   2.75e-01
  3.2794e+01   2.65e-01
  3.3533e+01   2.55e-01
  3.4288e+01   2.45e-01
  3.5060e+01   2.36e-01
  3.5849e+01   2.27e-01
  3.6656e+01   2.19e-01
  3.7482e+01   2.11e-01
  3.8326e+01   2.03e-01
  3.9188e+01   1.95e-01
  4.0071e+01   1.87e-01
  4.0973e+01   1.80e-01
  4.1896e+01   1.73e-01
  4.2839e+01   1.67e-01
  4.3803e+01   1.60e-01
  4.4790e+01   1.54e-01
  4.5798e+01   1.48e-01
  4.6829e+01   1.42e-01
  4.7884e+01   1.36e-01
  4.8962e+01   1.31e-01
  5.0064e+01   1.25e-01
  5.1191e+01   1.20e-01
  5.2344e+01   1.15e-01
  5.3522e+01   1.11e-01
  5.4727e+01   1.06e-01
  5.5960e+01   1.02e-01
  5.7219e+01   9.75e-02
  5.8508e+01   9.34e-02
  5.9825e+01   8.94e-02
  6.1172e+01   8.56e-02
  6.2549e+01   8.19e-02
  6.3958e+01   7.83e-02
  6.5398e+01   7.49e-02
  6.6870e+01   7.16e-02
  6.8376e+01   6.85e-02
  6.9915e+01   6.54e-02
  7.1489e+01   6.25e-02
  7.3099e+01   5.97e-02
  7.4745e+01   5.70e-02
  7.6428e+01   5.44e-02
  7.8148e+01   5.19e-02
  7.9908e+01   4.95e-02
  8.1707e+01   4.72e-02
  8.3547e+01   4.50e-02
  8.5428e+01   4.29e-02
  8.7351e+01   4.09e-02
  8.9318e+01   3.89e-02
  9.1329e+01   3.70e-02
  9.3385e+01   3.52e-02
  9.5488e+01   3.35e-02
  9.7638e+01   3.19e-02
  9.9836e+01   3.03e-02
  1.0208e+02   2.88e-02
  1.0438e+02   2.74e-02
  1.0673e+02   2.60e-02
  1.0914e+02   2.47e-02
  1.1159e+02   2.34e-02
  1.1411e+02   2.22e-02
  1.1667e+02   2.10e-02
  1.1930e+02   1.99e-02
  1.2199e+02   1.89e-02
  1.2473e+02   1.79e-02
  1.2754e+02   1.69e-02
  1.3041e+02   1.60e-02
  1.3335e+02   1.51e-02
  1.3635e+02   1.43e-02
  1.3942e+02   1.35e-02
  1.4256e+02   1.27e-02
  1.4577e+02   1.20e-02
  1.4905e+02   1.13e-02
  1.5241e+02   1.07e-02
  1.5584e+02   1.00e-02
  1.5935e+02   9.45e-03
  1.6294e+02   8.88e-03
  1.6661e+02   8.37e-03
  1.7036e+02   7.87e-03
  1.7419e+02   7.40e-03
  1.7812e+02   6.94e-03
  1.8213e+02   6.50e-03
  1.8623e+02   6.11e-03
  1.9042e+02   5.73e-03
  1.9471e+02   5.37e-03
  1.9909e+02   5.02e-03
  2.0357e+02   4.69e-03
  2.0816e+02   4.39e-03
  2.1284e+02   4.11e-03
  2.1763e+02   3.84e-03
  2.2253e+02   3.59e-03
  2.2755e+02   3.34e-03
  2.3267e+02   3.11e-03
  2.3791e+02   2.91e-03
  2.4326e+02   2.71e-03
  2.4874e+02   2.52e-03
  2.5434e+02   2.33e-03
  2.6007e+02   2.17e-03
  2.6592e+02   2.01e-03
  2.7191e+02   1.87e-03
  2.7803e+02   1.73e-03
  2.8429e+02   1.60e-03
  2.9069e+02   1.48e-03
  2.9724e+02   1.37e-03
  3.0393e+02   1.27e-03
  3.1077e+02   1.17e-03
  3.1777e+02   1.08e-03
  3.2493e+02   9.91e-04
  3.3224e+02   9.16e-04
  3.3972e+02   8.45e-04
  3.4737e+02   7.78e-04
  3.5519e+02   7.13e-04
  3.6319e+02   6.52e-04
  3.7137e+02   6.01e-04
  3.7973e+02   5.52e-04
  3.8828e+02   5.06e-04
  3.9702e+02   4.63e-04
  4.0596e+02   4.21e-04
  4.1510e+02   3.86e-04
  4.2444e+02   3.54e-04
  4.3400e+02   3.24e-04
  4.4377e+02   2.95e-04
  4.5376e+02   2.67e-04
  4.6398e+02   2.43e-04
  4.7443e+02   2.22e-04
  4.8511e+02   2.02e-04
  4.9603e+02   1.84e-04
  5.0720e+02   1.66e-04
  5.1862e+02   1.50e-04
  5.3030e+02   1.37e-04
  5.4224e+02   1.24e-04
  5.5444e+02   1.12e-04
  5.6693e+02   1.01e-04
  5.7969e+02   9.12e-05
  5.9274e+02   8.29e-05
  6.0609e+02   7.51e-05
  6.1974e+02   6.78e-05
  6.3369e+02   6.09e-05
  6.4796e+02   5.45e-05
  6.6255e+02   4.95e-05
  6.7746e+02   4.48e-05
  6.9272e+02   4.04e-05
  7.0831e+02   3.62e-05
  7.2426e+02   3.23e-05
  7.4057e+02   2.93e-05
  7.5724e+02   2.65e-05
  7.7429e+02   2.39e-05
  7.9172e+02   2.14e-05
  8.0955e+02   1.91e-05
  8.2778e+02   1.73e-05
  8.4641e+02   1.56e-05
  8.6547e+02   1.41e-05
  8.8496e+02   1.26e-05
  9.0488e+02   1.13e-05
  9.2526e+02   1.02e-05
  9.4609e+02   9.26e-06
  9.6739e+02   8.38e-06
  9.8917e+02   7.56e-06
  1.0114e+03   6.78e-06
  1.0342e+03   6.12e-06
  1.0575e+03   5.59e-06
  1.0813e+03   5.09e-06
  1.1057e+03   4.61e-06
  1.1305e+03   4.17e-06
  1.1560e+03   3.77e-06
  1.1820e+03   3.46e-06
  1.2086e+03   3.17e-06
  1.2359e+03   2.90e-06
  1.2637e+03   2.64e-06
  1.2921e+03   2.40e-06
  1.3212e+03   2.22e-06
  1.3510e+03   2.04e-06
  1.3814e+03   1.88e-06
  1.4125e+03   1.72e-06
  1.4443e+03   1.57e-06
  1.4768e+03   1.46e-06
  1.5101e+03   1.35e-06
  1.5441e+03   1.25e-06
  1.5788e+03   1.16e-06
  1.6144e+03   1.07e-06
  1.6507e+03   9.95e-07
  1.6879e+03   9.26e-07
  1.7259e+03   8.61e-07
  1.7648e+03   8.00e-07
  1.8045e+03   7.41e-07
  1.8451e+03   6.89e-07
  1.8867e+03   6.41e-07
  1.9291e+03   5.96e-07
  1.9726e+03   5.53e-07
  2.0170e+03   5.12e-07
  2.0624e+03   4.74e-07
  2.1088e+03   4.39e-07
  2.1563e+03   4.05e-07
  2.2049e+03   3.73e-07
  2.2545e+03   3.42e-07
  2.3053e+03   3.15e-07
  2.3572e+03   2.95e-07
  2.4102e+03   2.77e-07
  2.4645e+03   2.59e-07
  2.5200e+03   2.41e-07
