#  E [MeV]   Flux [# cm^{-2} s^{-1}  MeV^{-1}]
  3.0000e+04   1.50e-21
  3.1123e+04   1.44e-21
  3.2288e+04   1.39e-21
  3.3497e+04   1.33e-21
  3.4751e+04   1.28e-21
  3.6051e+04   1.23e-21
  3.7401e+04   1.18e-21
  3.8801e+04   1.14e-21
  4.0253e+04   1.09e-21
  4.1760e+04   1.05e-21
  4.3324e+04   1.01e-21
  4.4945e+04   9.66e-22
  4.6628e+04   9.27e-22
  4.8373e+04   8.89e-22
  5.0184e+04   8.52e-22
  5.2063e+04   8.17e-22
  5.4011e+04   7.83e-22
  5.6033e+04   7.51e-22
  5.8131e+04   7.19e-22
  6.0307e+04   6.89e-22
  6.2564e+04   6.60e-22
  6.4906e+04   6.32e-22
  6.7336e+04   6.05e-22
  6.9857e+04   5.78e-22
  7.2472e+04   5.53e-22
  7.5184e+04   5.29e-22
  7.7999e+04   5.06e-22
  8.0919e+04   4.83e-22
  8.3948e+04   4.62e-22
  8.7090e+04   4.41e-22
  9.0350e+04   4.21e-22
  9.3732e+04   4.02e-22
  9.7241e+04   3.84e-22
  1.0088e+05   3.66e-22
  1.0466e+05   3.49e-22
  1.0858e+05   3.33e-22
  1.1264e+05   3.17e-22
  1.1686e+05   3.02e-22
  1.2123e+05   2.88e-22
  1.2577e+05   2.74e-22
  1.3048e+05   2.61e-22
  1.3536e+05   2.48e-22
  1.4043e+05   2.36e-22
  1.4568e+05   2.24e-22
  1.5114e+05   2.13e-22
  1.5680e+05   2.02e-22
  1.6266e+05   1.92e-22
  1.6875e+05   1.82e-22
  1.7507e+05   1.73e-22
  1.8162e+05   1.64e-22
  1.8842e+05   1.55e-22
  1.9548e+05   1.47e-22
  2.0279e+05   1.39e-22
  2.1039e+05   1.32e-22
  2.1826e+05   1.24e-22
  2.2643e+05   1.18e-22
  2.3491e+05   1.11e-22
  2.4370e+05   1.05e-22
  2.5282e+05   9.88e-23
  2.6229e+05   9.32e-23
  2.7211e+05   8.78e-23
  2.8229e+05   8.26e-23
  2.9286e+05   7.77e-23
  3.0382e+05   7.31e-23
  3.1519e+05   6.87e-23
  3.2699e+05   6.45e-23
  3.3923e+05   6.05e-23
  3.5193e+05   5.67e-23
  3.6511e+05   5.31e-23
  3.7877e+05   4.97e-23
  3.9295e+05   4.65e-23
  4.0766e+05   4.35e-23
  4.2292e+05   4.06e-23
  4.3875e+05   3.79e-23
  4.5518e+05   3.54e-23
  4.7222e+05   3.30e-23
  4.8989e+05   3.07e-23
  5.0823e+05   2.86e-23
  5.2726e+05   2.66e-23
  5.4699e+05   2.47e-23
  5.6747e+05   2.30e-23
  5.8871e+05   2.14e-23
  6.1075e+05   1.98e-23
  6.3361e+05   1.84e-23
  6.5733e+05   1.71e-23
  6.8194e+05   1.58e-23
  7.0746e+05   1.47e-23
  7.3395e+05   1.36e-23
  7.6142e+05   1.26e-23
  7.8992e+05   1.17e-23
  8.1949e+05   1.09e-23
  8.5017e+05   1.01e-23
  8.8199e+05   9.34e-24
  9.1501e+05   8.66e-24
  9.4926e+05   8.04e-24
  9.8479e+05   7.46e-24
  1.0217e+06   6.92e-24
  1.0599e+06   6.42e-24
  1.0996e+06   5.97e-24
  1.1407e+06   5.55e-24
  1.1834e+06   5.15e-24
  1.2277e+06   4.80e-24
  1.2737e+06   4.47e-24
  1.3214e+06   4.16e-24
  1.3708e+06   3.87e-24
  1.4222e+06   3.61e-24
  1.4754e+06   3.37e-24
  1.5306e+06   3.14e-24
  1.5879e+06   2.93e-24
  1.6474e+06   2.74e-24
  1.7090e+06   2.56e-24
  1.7730e+06   2.40e-24
  1.8394e+06   2.24e-24
  1.9082e+06   2.10e-24
  1.9797e+06   1.97e-24
  2.0538e+06   1.84e-24
  2.1306e+06   1.72e-24
  2.2104e+06   1.62e-24
  2.2931e+06   1.52e-24
  2.3790e+06   1.42e-24
  2.4680e+06   1.34e-24
  2.5604e+06   1.25e-24
  2.6563e+06   1.18e-24
  2.7557e+06   1.11e-24
  2.8589e+06   1.04e-24
  2.9659e+06   9.75e-25
  3.0769e+06   9.16e-25
  3.1921e+06   8.60e-25
  3.3116e+06   8.07e-25
  3.4355e+06   7.58e-25
  3.5641e+06   7.11e-25
  3.6976e+06   6.67e-25
  3.8360e+06   6.25e-25
  3.9796e+06   5.85e-25
  4.1285e+06   5.48e-25
  4.2831e+06   5.12e-25
  4.4434e+06   4.79e-25
  4.6097e+06   4.47e-25
  4.7823e+06   4.17e-25
  4.9613e+06   3.88e-25
  5.1470e+06   3.61e-25
  5.3397e+06   3.36e-25
  5.5396e+06   3.11e-25
  5.7470e+06   2.88e-25
  5.9621e+06   2.66e-25
  6.1853e+06   2.45e-25
  6.4168e+06   2.26e-25
  6.6570e+06   2.07e-25
  6.9062e+06   1.89e-25
  7.1647e+06   1.73e-25
  7.4329e+06   1.57e-25
  7.7112e+06   1.42e-25
  7.9998e+06   1.28e-25
  8.2993e+06   1.14e-25
  8.6100e+06   1.02e-25
  8.9323e+06   9.07e-26
  9.2666e+06   8.00e-26
  9.6135e+06   7.01e-26
  9.9734e+06   6.10e-26
  1.0347e+07   5.27e-26
  1.0734e+07   4.51e-26
  1.1136e+07   3.82e-26
  1.1553e+07   3.20e-26
  1.1985e+07   2.65e-26
  1.2434e+07   2.17e-26
  1.2899e+07   1.75e-26
  1.3382e+07   1.39e-26
  1.3883e+07   1.08e-26
  1.4403e+07   8.27e-27
  1.4942e+07   6.18e-27
  1.5501e+07   4.51e-27
  1.6081e+07   3.19e-27
  1.6683e+07   2.20e-27
  1.7308e+07   1.46e-27
  1.7956e+07   9.28e-28
  1.8628e+07   5.66e-28
  1.9325e+07   3.27e-28
  2.0049e+07   1.79e-28
  2.0799e+07   9.12e-29
  2.1578e+07   4.31e-29
  2.2386e+07   1.86e-29
  2.3224e+07   7.28e-30
  2.4093e+07   2.52e-30
  2.4995e+07   7.60e-31
  2.5930e+07   1.95e-31
  2.6901e+07   4.13e-32
  2.7908e+07   6.98e-33
  2.8953e+07   9.04e-34
  3.0037e+07   8.52e-35
  3.1161e+07   5.49e-36
  3.2327e+07   2.24e-37
  3.3537e+07   5.27e-39
  3.4793e+07   6.33e-41
  3.6095e+07   3.34e-43
  3.7446e+07   6.43e-46
  3.8848e+07   3.53e-49
  4.0302e+07   4.09e-53
  4.1811e+07   6.68e-58
  4.3376e+07   9.27e-64
  4.5000e+07   5.83e-66
