#  E [MeV]   Flux [# cm^{-2} s^{-1}  MeV^{-1}]
  3.0000e+04   3.53e-21
  3.0765e+04   3.41e-21
  3.1549e+04   3.30e-21
  3.2354e+04   3.18e-21
  3.3179e+04   3.07e-21
  3.4025e+04   2.97e-21
  3.4892e+04   2.86e-21
  3.5782e+04   2.76e-21
  3.6695e+04   2.67e-21
  3.7630e+04   2.57e-21
  3.8590e+04   2.48e-21
  3.9574e+04   2.40e-21
  4.0583e+04   2.31e-21
  4.1618e+04   2.23e-21
  4.2679e+04   2.15e-21
  4.3767e+04   2.08e-21
  4.4883e+04   2.00e-21
  4.6028e+04   1.93e-21
  4.7201e+04   1.86e-21
  4.8405e+04   1.80e-21
  4.9639e+04   1.73e-21
  5.0905e+04   1.67e-21
  5.2203e+04   1.61e-21
  5.3534e+04   1.55e-21
  5.4899e+04   1.50e-21
  5.6299e+04   1.44e-21
  5.7734e+04   1.39e-21
  5.9207e+04   1.34e-21
  6.0716e+04   1.29e-21
  6.2264e+04   1.24e-21
  6.3852e+04   1.20e-21
  6.5480e+04   1.15e-21
  6.7150e+04   1.11e-21
  6.8862e+04   1.07e-21
  7.0618e+04   1.03e-21
  7.2419e+04   9.94e-22
  7.4265e+04   9.57e-22
  7.6159e+04   9.22e-22
  7.8101e+04   8.88e-22
  8.0092e+04   8.55e-22
  8.2135e+04   8.24e-22
  8.4229e+04   7.93e-22
  8.6377e+04   7.64e-22
  8.8579e+04   7.36e-22
  9.0838e+04   7.09e-22
  9.3154e+04   6.83e-22
  9.5529e+04   6.57e-22
  9.7965e+04   6.33e-22
  1.0046e+05   6.10e-22
  1.0303e+05   5.87e-22
  1.0565e+05   5.65e-22
  1.0835e+05   5.44e-22
  1.1111e+05   5.24e-22
  1.1394e+05   5.05e-22
  1.1685e+05   4.86e-22
  1.1983e+05   4.68e-22
  1.2288e+05   4.50e-22
  1.2602e+05   4.34e-22
  1.2923e+05   4.17e-22
  1.3252e+05   4.02e-22
  1.3590e+05   3.87e-22
  1.3937e+05   3.72e-22
  1.4292e+05   3.58e-22
  1.4657e+05   3.45e-22
  1.5030e+05   3.32e-22
  1.5414e+05   3.19e-22
  1.5807e+05   3.07e-22
  1.6210e+05   2.96e-22
  1.6623e+05   2.84e-22
  1.7047e+05   2.74e-22
  1.7482e+05   2.63e-22
  1.7927e+05   2.54e-22
  1.8384e+05   2.44e-22
  1.8853e+05   2.35e-22
  1.9334e+05   2.26e-22
  1.9827e+05   2.17e-22
  2.0333e+05   2.09e-22
  2.0851e+05   2.01e-22
  2.1383e+05   1.94e-22
  2.1928e+05   1.86e-22
  2.2487e+05   1.79e-22
  2.3060e+05   1.72e-22
  2.3648e+05   1.66e-22
  2.4251e+05   1.60e-22
  2.4870e+05   1.54e-22
  2.5504e+05   1.48e-22
  2.6154e+05   1.42e-22
  2.6821e+05   1.36e-22
  2.7505e+05   1.31e-22
  2.8206e+05   1.26e-22
  2.8926e+05   1.21e-22
  2.9663e+05   1.16e-22
  3.0420e+05   1.12e-22
  3.1195e+05   1.07e-22
  3.1991e+05   1.03e-22
  3.2806e+05   9.89e-23
  3.3643e+05   9.49e-23
  3.4501e+05   9.11e-23
  3.5381e+05   8.74e-23
  3.6283e+05   8.38e-23
  3.7208e+05   8.04e-23
  3.8157e+05   7.71e-23
  3.9130e+05   7.39e-23
  4.0127e+05   7.09e-23
  4.1150e+05   6.79e-23
  4.2200e+05   6.51e-23
  4.3276e+05   6.24e-23
  4.4379e+05   5.98e-23
  4.5511e+05   5.73e-23
  4.6671e+05   5.49e-23
  4.7861e+05   5.26e-23
  4.9082e+05   5.04e-23
  5.0333e+05   4.82e-23
  5.1617e+05   4.61e-23
  5.2933e+05   4.42e-23
  5.4283e+05   4.22e-23
  5.5667e+05   4.04e-23
  5.7086e+05   3.87e-23
  5.8542e+05   3.70e-23
  6.0035e+05   3.53e-23
  6.1565e+05   3.38e-23
  6.3135e+05   3.23e-23
  6.4745e+05   3.09e-23
  6.6396e+05   2.95e-23
  6.8089e+05   2.82e-23
  6.9825e+05   2.70e-23
  7.1606e+05   2.58e-23
  7.3432e+05   2.47e-23
  7.5304e+05   2.36e-23
  7.7224e+05   2.25e-23
  7.9193e+05   2.16e-23
  8.1213e+05   2.06e-23
  8.3283e+05   1.97e-23
  8.5407e+05   1.88e-23
  8.7585e+05   1.80e-23
  8.9818e+05   1.72e-23
  9.2108e+05   1.64e-23
  9.4457e+05   1.57e-23
  9.6866e+05   1.50e-23
  9.9336e+05   1.44e-23
  1.0187e+06   1.37e-23
  1.0447e+06   1.31e-23
  1.0713e+06   1.26e-23
  1.0986e+06   1.20e-23
  1.1266e+06   1.15e-23
  1.1554e+06   1.10e-23
  1.1848e+06   1.05e-23
  1.2150e+06   1.01e-23
  1.2460e+06   9.63e-24
  1.2778e+06   9.22e-24
  1.3104e+06   8.83e-24
  1.3438e+06   8.45e-24
  1.3780e+06   8.09e-24
  1.4132e+06   7.75e-24
  1.4492e+06   7.42e-24
  1.4862e+06   7.11e-24
  1.5241e+06   6.81e-24
  1.5629e+06   6.53e-24
  1.6028e+06   6.26e-24
  1.6436e+06   6.00e-24
  1.6856e+06   5.75e-24
  1.7285e+06   5.51e-24
  1.7726e+06   5.28e-24
  1.8178e+06   5.06e-24
  1.8642e+06   4.85e-24
  1.9117e+06   4.65e-24
  1.9604e+06   4.45e-24
  2.0104e+06   4.27e-24
  2.0617e+06   4.09e-24
  2.1143e+06   3.92e-24
  2.1682e+06   3.75e-24
  2.2235e+06   3.60e-24
  2.2802e+06   3.44e-24
  2.3383e+06   3.30e-24
  2.3979e+06   3.15e-24
  2.4591e+06   3.02e-24
  2.5218e+06   2.89e-24
  2.5861e+06   2.76e-24
  2.6520e+06   2.64e-24
  2.7196e+06   2.53e-24
  2.7890e+06   2.42e-24
  2.8601e+06   2.31e-24
  2.9330e+06   2.21e-24
  3.0078e+06   2.11e-24
  3.0845e+06   2.01e-24
  3.1632e+06   1.92e-24
  3.2438e+06   1.84e-24
  3.3265e+06   1.75e-24
  3.4113e+06   1.67e-24
  3.4983e+06   1.59e-24
  3.5875e+06   1.51e-24
  3.6790e+06   1.44e-24
  3.7728e+06   1.37e-24
  3.8690e+06   1.30e-24
  3.9677e+06   1.24e-24
  4.0689e+06   1.17e-24
  4.1726e+06   1.11e-24
  4.2790e+06   1.06e-24
  4.3881e+06   1.01e-24
  4.5000e+06   9.56e-25
