#  E [MeV]   Flux [# cm^{-2} s^{-1}  MeV^{-1}]
  3.0000e+04   3.41e-19
  3.0765e+04   3.29e-19
  3.1549e+04   3.17e-19
  3.2354e+04   3.05e-19
  3.3179e+04   2.94e-19
  3.4025e+04   2.83e-19
  3.4892e+04   2.72e-19
  3.5782e+04   2.62e-19
  3.6695e+04   2.52e-19
  3.7630e+04   2.42e-19
  3.8590e+04   2.33e-19
  3.9574e+04   2.24e-19
  4.0583e+04   2.16e-19
  4.1618e+04   2.07e-19
  4.2679e+04   1.99e-19
  4.3767e+04   1.91e-19
  4.4883e+04   1.84e-19
  4.6028e+04   1.76e-19
  4.7201e+04   1.69e-19
  4.8405e+04   1.63e-19
  4.9639e+04   1.56e-19
  5.0905e+04   1.50e-19
  5.2203e+04   1.44e-19
  5.3534e+04   1.38e-19
  5.4899e+04   1.32e-19
  5.6299e+04   1.27e-19
  5.7734e+04   1.22e-19
  5.9207e+04   1.17e-19
  6.0716e+04   1.12e-19
  6.2264e+04   1.07e-19
  6.3852e+04   1.03e-19
  6.5480e+04   9.82e-20
  6.7150e+04   9.40e-20
  6.8862e+04   9.00e-20
  7.0618e+04   8.61e-20
  7.2419e+04   8.24e-20
  7.4265e+04   7.89e-20
  7.6159e+04   7.54e-20
  7.8101e+04   7.21e-20
  8.0092e+04   6.90e-20
  8.2135e+04   6.59e-20
  8.4229e+04   6.30e-20
  8.6377e+04   6.02e-20
  8.8579e+04   5.74e-20
  9.0838e+04   5.49e-20
  9.3154e+04   5.24e-20
  9.5529e+04   5.00e-20
  9.7965e+04   4.77e-20
  1.0046e+05   4.55e-20
  1.0303e+05   4.33e-20
  1.0565e+05   4.13e-20
  1.0835e+05   3.94e-20
  1.1111e+05   3.75e-20
  1.1394e+05   3.57e-20
  1.1685e+05   3.40e-20
  1.1983e+05   3.23e-20
  1.2288e+05   3.07e-20
  1.2602e+05   2.92e-20
  1.2923e+05   2.78e-20
  1.3252e+05   2.64e-20
  1.3590e+05   2.50e-20
  1.3937e+05   2.38e-20
  1.4292e+05   2.26e-20
  1.4657e+05   2.14e-20
  1.5030e+05   2.03e-20
  1.5414e+05   1.92e-20
  1.5807e+05   1.82e-20
  1.6210e+05   1.73e-20
  1.6623e+05   1.64e-20
  1.7047e+05   1.55e-20
  1.7482e+05   1.46e-20
  1.7927e+05   1.38e-20
  1.8384e+05   1.31e-20
  1.8853e+05   1.24e-20
  1.9334e+05   1.17e-20
  1.9827e+05   1.10e-20
  2.0333e+05   1.04e-20
  2.0851e+05   9.82e-21
  2.1383e+05   9.26e-21
  2.1928e+05   8.72e-21
  2.2487e+05   8.21e-21
  2.3060e+05   7.73e-21
  2.3648e+05   7.28e-21
  2.4251e+05   6.84e-21
  2.4870e+05   6.41e-21
  2.5504e+05   6.03e-21
  2.6154e+05   5.67e-21
  2.6821e+05   5.31e-21
  2.7505e+05   4.98e-21
  2.8206e+05   4.66e-21
  2.8926e+05   4.38e-21
  2.9663e+05   4.10e-21
  3.0420e+05   3.83e-21
  3.1195e+05   3.58e-21
  3.1991e+05   3.35e-21
  3.2806e+05   3.13e-21
  3.3643e+05   2.92e-21
  3.4501e+05   2.72e-21
  3.5381e+05   2.54e-21
  3.6283e+05   2.37e-21
  3.7208e+05   2.21e-21
  3.8157e+05   2.06e-21
  3.9130e+05   1.91e-21
  4.0127e+05   1.78e-21
  4.1150e+05   1.65e-21
  4.2200e+05   1.54e-21
  4.3276e+05   1.42e-21
  4.4379e+05   1.32e-21
  4.5511e+05   1.23e-21
  4.6671e+05   1.14e-21
  4.7861e+05   1.05e-21
  4.9082e+05   9.69e-22
  5.0333e+05   8.96e-22
  5.1617e+05   8.30e-22
  5.2933e+05   7.67e-22
  5.4283e+05   7.06e-22
  5.5667e+05   6.48e-22
  5.7086e+05   6.00e-22
  5.8542e+05   5.54e-22
  6.0035e+05   5.09e-22
  6.1565e+05   4.67e-22
  6.3135e+05   4.29e-22
  6.4745e+05   3.96e-22
  6.6396e+05   3.64e-22
  6.8089e+05   3.33e-22
  6.9825e+05   3.04e-22
  7.1606e+05   2.80e-22
  7.3432e+05   2.57e-22
  7.5304e+05   2.35e-22
  7.7224e+05   2.14e-22
  7.9193e+05   1.95e-22
  8.1213e+05   1.79e-22
  8.3283e+05   1.64e-22
  8.5407e+05   1.49e-22
  8.7585e+05   1.35e-22
  8.9818e+05   1.24e-22
  9.2108e+05   1.13e-22
  9.4457e+05   1.03e-22
  9.6866e+05   9.34e-23
  9.9336e+05   8.45e-23
  1.0187e+06   7.72e-23
  1.0447e+06   7.04e-23
  1.0713e+06   6.38e-23
  1.0986e+06   5.75e-23
  1.1266e+06   5.22e-23
  1.1554e+06   4.76e-23
  1.1848e+06   4.32e-23
  1.2150e+06   3.91e-23
  1.2460e+06   3.51e-23
  1.2778e+06   3.20e-23
  1.3104e+06   2.91e-23
  1.3438e+06   2.64e-23
  1.3780e+06   2.37e-23
  1.4132e+06   2.14e-23
  1.4492e+06   1.96e-23
  1.4862e+06   1.77e-23
  1.5241e+06   1.60e-23
  1.5629e+06   1.44e-23
  1.6028e+06   1.31e-23
  1.6436e+06   1.19e-23
  1.6856e+06   1.08e-23
  1.7285e+06   9.78e-24
  1.7726e+06   8.84e-24
  1.8178e+06   8.11e-24
  1.8642e+06   7.40e-24
  1.9117e+06   6.73e-24
  1.9604e+06   6.09e-24
  2.0104e+06   5.58e-24
  2.0617e+06   5.13e-24
  2.1143e+06   4.70e-24
  2.1682e+06   4.28e-24
  2.2235e+06   3.91e-24
  2.2802e+06   3.62e-24
  2.3383e+06   3.34e-24
  2.3979e+06   3.08e-24
  2.4591e+06   2.82e-24
  2.5218e+06   2.61e-24
  2.5861e+06   2.43e-24
  2.6520e+06   2.25e-24
  2.7196e+06   2.08e-24
  2.7890e+06   1.92e-24
  2.8601e+06   1.79e-24
  2.9330e+06   1.67e-24
  3.0078e+06   1.56e-24
  3.0845e+06   1.45e-24
  3.1632e+06   1.35e-24
  3.2438e+06   1.26e-24
  3.3265e+06   1.18e-24
  3.4113e+06   1.11e-24
  3.4983e+06   1.03e-24
  3.5875e+06   9.63e-25
  3.6790e+06   8.98e-25
  3.7728e+06   8.36e-25
  3.8690e+06   7.77e-25
  3.9677e+06   7.21e-25
  4.0689e+06   6.69e-25
  4.1726e+06   6.20e-25
  4.2790e+06   5.72e-25
  4.3881e+06   5.27e-25
  4.5000e+06   4.92e-25
