#  E [GeV]   # per interaction  [GeV^{-1}]
  3.0000e+01   7.92e-01
  3.1232e+01   7.58e-01
  3.2514e+01   7.25e-01
  3.3849e+01   6.94e-01
  3.5238e+01   6.64e-01
  3.6685e+01   6.35e-01
  3.8191e+01   6.07e-01
  3.9759e+01   5.81e-01
  4.1391e+01   5.55e-01
  4.3090e+01   5.31e-01
  4.4859e+01   5.08e-01
  4.6701e+01   4.86e-01
  4.8618e+01   4.65e-01
  5.0614e+01   4.44e-01
  5.2692e+01   4.25e-01
  5.4855e+01   4.06e-01
  5.7107e+01   3.88e-01
  5.9451e+01   3.71e-01
  6.1892e+01   3.55e-01
  6.4433e+01   3.39e-01
  6.7078e+01   3.24e-01
  6.9832e+01   3.10e-01
  7.2699e+01   2.96e-01
  7.5683e+01   2.83e-01
  7.8790e+01   2.70e-01
  8.2025e+01   2.58e-01
  8.5392e+01   2.47e-01
  8.8898e+01   2.35e-01
  9.2547e+01   2.25e-01
  9.6347e+01   2.15e-01
  1.0030e+02   2.05e-01
  1.0442e+02   1.96e-01
  1.0871e+02   1.87e-01
  1.1317e+02   1.79e-01
  1.1782e+02   1.70e-01
  1.2265e+02   1.63e-01
  1.2769e+02   1.55e-01
  1.3293e+02   1.48e-01
  1.3839e+02   1.41e-01
  1.4407e+02   1.35e-01
  1.4998e+02   1.29e-01
  1.5614e+02   1.23e-01
  1.6255e+02   1.17e-01
  1.6922e+02   1.11e-01
  1.7617e+02   1.06e-01
  1.8340e+02   1.01e-01
  1.9093e+02   9.63e-02
  1.9877e+02   9.17e-02
  2.0693e+02   8.73e-02
  2.1543e+02   8.31e-02
  2.2427e+02   7.91e-02
  2.3348e+02   7.53e-02
  2.4306e+02   7.16e-02
  2.5304e+02   6.81e-02
  2.6343e+02   6.47e-02
  2.7424e+02   6.15e-02
  2.8550e+02   5.84e-02
  2.9722e+02   5.55e-02
  3.0942e+02   5.27e-02
  3.2213e+02   5.00e-02
  3.3535e+02   4.74e-02
  3.4912e+02   4.50e-02
  3.6345e+02   4.26e-02
  3.7837e+02   4.04e-02
  3.9390e+02   3.82e-02
  4.1008e+02   3.62e-02
  4.2691e+02   3.43e-02
  4.4444e+02   3.24e-02
  4.6268e+02   3.06e-02
  4.8168e+02   2.89e-02
  5.0145e+02   2.73e-02
  5.2204e+02   2.58e-02
  5.4347e+02   2.44e-02
  5.6578e+02   2.30e-02
  5.8901e+02   2.17e-02
  6.1319e+02   2.04e-02
  6.3836e+02   1.92e-02
  6.6457e+02   1.81e-02
  6.9185e+02   1.70e-02
  7.2025e+02   1.60e-02
  7.4982e+02   1.50e-02
  7.8061e+02   1.41e-02
  8.1265e+02   1.33e-02
  8.4601e+02   1.24e-02
  8.8075e+02   1.17e-02
  9.1690e+02   1.09e-02
  9.5455e+02   1.02e-02
  9.9373e+02   9.59e-03
  1.0345e+03   8.97e-03
  1.0770e+03   8.39e-03
  1.1212e+03   7.84e-03
  1.1672e+03   7.33e-03
  1.2152e+03   6.84e-03
  1.2650e+03   6.38e-03
  1.3170e+03   5.95e-03
  1.3711e+03   5.55e-03
  1.4273e+03   5.17e-03
  1.4859e+03   4.82e-03
  1.5469e+03   4.48e-03
  1.6104e+03   4.17e-03
  1.6766e+03   3.88e-03
  1.7454e+03   3.60e-03
  1.8170e+03   3.35e-03
  1.8916e+03   3.11e-03
  1.9693e+03   2.88e-03
  2.0501e+03   2.67e-03
  2.1343e+03   2.48e-03
  2.2219e+03   2.29e-03
  2.3131e+03   2.12e-03
  2.4081e+03   1.96e-03
  2.5070e+03   1.81e-03
  2.6099e+03   1.67e-03
  2.7170e+03   1.54e-03
  2.8286e+03   1.42e-03
  2.9447e+03   1.31e-03
  3.0656e+03   1.20e-03
  3.1914e+03   1.11e-03
  3.3225e+03   1.02e-03
  3.4589e+03   9.34e-04
  3.6008e+03   8.56e-04
  3.7487e+03   7.85e-04
  3.9026e+03   7.18e-04
  4.0628e+03   6.57e-04
  4.2296e+03   6.01e-04
  4.4032e+03   5.48e-04
  4.5840e+03   5.00e-04
  4.7722e+03   4.55e-04
  4.9681e+03   4.13e-04
  5.1720e+03   3.76e-04
  5.3844e+03   3.41e-04
  5.6054e+03   3.09e-04
  5.8355e+03   2.80e-04
  6.0751e+03   2.53e-04
  6.3245e+03   2.28e-04
  6.5841e+03   2.06e-04
  6.8544e+03   1.86e-04
  7.1358e+03   1.67e-04
  7.4288e+03   1.50e-04
  7.7338e+03   1.35e-04
  8.0513e+03   1.21e-04
  8.3818e+03   1.08e-04
  8.7259e+03   9.64e-05
  9.0841e+03   8.60e-05
  9.4571e+03   7.66e-05
  9.8453e+03   6.78e-05
  1.0249e+04   6.02e-05
  1.0670e+04   5.33e-05
  1.1108e+04   4.69e-05
  1.1564e+04   4.14e-05
  1.2039e+04   3.64e-05
  1.2533e+04   3.18e-05
  1.3048e+04   2.79e-05
  1.3584e+04   2.44e-05
  1.4141e+04   2.11e-05
  1.4722e+04   1.84e-05
  1.5326e+04   1.58e-05
  1.5955e+04   1.36e-05
  1.6610e+04   1.17e-05
  1.7292e+04   9.96e-06
  1.8002e+04   8.44e-06
  1.8741e+04   7.15e-06
  1.9511e+04   5.97e-06
  2.0312e+04   4.97e-06
  2.1145e+04   4.11e-06
  2.2013e+04   3.35e-06
  2.2917e+04   2.72e-06
  2.3858e+04   2.18e-06
  2.4837e+04   1.71e-06
  2.5857e+04   1.33e-06
  2.6919e+04   1.01e-06
  2.8024e+04   7.47e-07
  2.9174e+04   5.45e-07
  3.0372e+04   3.82e-07
  3.1619e+04   2.55e-07
  3.2917e+04   1.65e-07
  3.4268e+04   9.99e-08
  3.5675e+04   5.59e-08
  3.7140e+04   2.89e-08
  3.8664e+04   1.32e-08
  4.0252e+04   5.18e-09
  4.1904e+04   1.71e-09
  4.3624e+04   4.39e-10
  4.5415e+04   8.27e-11
  4.7280e+04   1.04e-11
  4.9221e+04   7.54e-13
  5.1241e+04   2.66e-14
  5.3345e+04   3.50e-16
  5.5535e+04   1.17e-18
  5.7815e+04   6.13e-22
  6.0188e+04   2.28e-26
  6.2659e+04   1.96e-32
  6.5232e+04   7.62e-41
  6.7910e+04   9.93e-48
  7.0698e+04   8.58e-48
  7.3600e+04   7.65e-48
  7.6621e+04   6.78e-48
  7.9767e+04   6.01e-48
  8.3042e+04   5.42e-48
  8.6451e+04   4.87e-48
  9.0000e+04   4.39e-48
