#  E [MeV]   Flux [# cm^{-2} s^{-1}  MeV^{-1}]
  3.0000e+04   2.70e-20
  3.1123e+04   2.60e-20
  3.2288e+04   2.50e-20
  3.3497e+04   2.40e-20
  3.4751e+04   2.30e-20
  3.6051e+04   2.21e-20
  3.7401e+04   2.13e-20
  3.8801e+04   2.04e-20
  4.0253e+04   1.96e-20
  4.1760e+04   1.88e-20
  4.3324e+04   1.81e-20
  4.4945e+04   1.74e-20
  4.6628e+04   1.67e-20
  4.8373e+04   1.60e-20
  5.0184e+04   1.54e-20
  5.2063e+04   1.47e-20
  5.4011e+04   1.41e-20
  5.6033e+04   1.36e-20
  5.8131e+04   1.30e-20
  6.0307e+04   1.25e-20
  6.2564e+04   1.20e-20
  6.4906e+04   1.15e-20
  6.7336e+04   1.10e-20
  6.9857e+04   1.06e-20
  7.2472e+04   1.01e-20
  7.5184e+04   9.70e-21
  7.7999e+04   9.29e-21
  8.0919e+04   8.90e-21
  8.3948e+04   8.53e-21
  8.7090e+04   8.17e-21
  9.0350e+04   7.82e-21
  9.3732e+04   7.48e-21
  9.7241e+04   7.16e-21
  1.0088e+05   6.85e-21
  1.0466e+05   6.56e-21
  1.0858e+05   6.27e-21
  1.1264e+05   6.00e-21
  1.1686e+05   5.73e-21
  1.2123e+05   5.48e-21
  1.2577e+05   5.23e-21
  1.3048e+05   5.00e-21
  1.3536e+05   4.77e-21
  1.4043e+05   4.55e-21
  1.4568e+05   4.34e-21
  1.5114e+05   4.14e-21
  1.5680e+05   3.95e-21
  1.6266e+05   3.76e-21
  1.6875e+05   3.58e-21
  1.7507e+05   3.41e-21
  1.8162e+05   3.25e-21
  1.8842e+05   3.09e-21
  1.9548e+05   2.94e-21
  2.0279e+05   2.79e-21
  2.1039e+05   2.65e-21
  2.1826e+05   2.52e-21
  2.2643e+05   2.39e-21
  2.3491e+05   2.26e-21
  2.4370e+05   2.15e-21
  2.5282e+05   2.03e-21
  2.6229e+05   1.92e-21
  2.7211e+05   1.82e-21
  2.8229e+05   1.72e-21
  2.9286e+05   1.62e-21
  3.0382e+05   1.53e-21
  3.1519e+05   1.45e-21
  3.2699e+05   1.36e-21
  3.3923e+05   1.28e-21
  3.5193e+05   1.21e-21
  3.6511e+05   1.13e-21
  3.7877e+05   1.07e-21
  3.9295e+05   1.00e-21
  4.0766e+05   9.38e-22
  4.2292e+05   8.80e-22
  4.3875e+05   8.24e-22
  4.5518e+05   7.71e-22
  4.7222e+05   7.21e-22
  4.8989e+05   6.74e-22
  5.0823e+05   6.29e-22
  5.2726e+05   5.87e-22
  5.4699e+05   5.47e-22
  5.6747e+05   5.09e-22
  5.8871e+05   4.74e-22
  6.1075e+05   4.41e-22
  6.3361e+05   4.10e-22
  6.5733e+05   3.81e-22
  6.8194e+05   3.54e-22
  7.0746e+05   3.28e-22
  7.3395e+05   3.05e-22
  7.6142e+05   2.82e-22
  7.8992e+05   2.62e-22
  8.1949e+05   2.42e-22
  8.5017e+05   2.24e-22
  8.8199e+05   2.08e-22
  9.1501e+05   1.92e-22
  9.4926e+05   1.78e-22
  9.8479e+05   1.65e-22
  1.0217e+06   1.52e-22
  1.0599e+06   1.41e-22
  1.0996e+06   1.30e-22
  1.1407e+06   1.20e-22
  1.1834e+06   1.11e-22
  1.2277e+06   1.03e-22
  1.2737e+06   9.47e-23
  1.3214e+06   8.74e-23
  1.3708e+06   8.06e-23
  1.4222e+06   7.45e-23
  1.4754e+06   6.87e-23
  1.5306e+06   6.33e-23
  1.5879e+06   5.85e-23
  1.6474e+06   5.39e-23
  1.7090e+06   4.97e-23
  1.7730e+06   4.58e-23
  1.8394e+06   4.22e-23
  1.9082e+06   3.88e-23
  1.9797e+06   3.58e-23
  2.0538e+06   3.29e-23
  2.1306e+06   3.03e-23
  2.2104e+06   2.78e-23
  2.2931e+06   2.56e-23
  2.3790e+06   2.34e-23
  2.4680e+06   2.15e-23
  2.5604e+06   1.97e-23
  2.6563e+06   1.80e-23
  2.7557e+06   1.65e-23
  2.8589e+06   1.51e-23
  2.9659e+06   1.38e-23
  3.0769e+06   1.26e-23
  3.1921e+06   1.15e-23
  3.3116e+06   1.05e-23
  3.4355e+06   9.50e-24
  3.5641e+06   8.64e-24
  3.6976e+06   7.84e-24
  3.8360e+06   7.09e-24
  3.9796e+06   6.42e-24
  4.1285e+06   5.80e-24
  4.2831e+06   5.22e-24
  4.4434e+06   4.70e-24
  4.6097e+06   4.22e-24
  4.7823e+06   3.77e-24
  4.9613e+06   3.38e-24
  5.1470e+06   3.02e-24
  5.3397e+06   2.68e-24
  5.5396e+06   2.38e-24
  5.7470e+06   2.11e-24
  5.9621e+06   1.86e-24
  6.1853e+06   1.64e-24
  6.4168e+06   1.44e-24
  6.6570e+06   1.26e-24
  6.9062e+06   1.10e-24
  7.1647e+06   9.56e-25
  7.4329e+06   8.25e-25
  7.7112e+06   7.11e-25
  7.9998e+06   6.11e-25
  8.2993e+06   5.21e-25
  8.6100e+06   4.42e-25
  8.9323e+06   3.74e-25
  9.2666e+06   3.13e-25
  9.6135e+06   2.60e-25
  9.9734e+06   2.16e-25
  1.0347e+07   1.78e-25
  1.0734e+07   1.44e-25
  1.1136e+07   1.17e-25
  1.1553e+07   9.35e-26
  1.1985e+07   7.35e-26
  1.2434e+07   5.79e-26
  1.2899e+07   4.48e-26
  1.3382e+07   3.39e-26
  1.3883e+07   2.56e-26
  1.4403e+07   1.90e-26
  1.4942e+07   1.37e-26
  1.5501e+07   9.74e-27
  1.6081e+07   6.79e-27
  1.6683e+07   4.58e-27
  1.7308e+07   3.01e-27
  1.7956e+07   1.93e-27
  1.8628e+07   1.18e-27
  1.9325e+07   6.93e-28
  2.0049e+07   3.93e-28
  2.0799e+07   2.09e-28
  2.1578e+07   1.04e-28
  2.2386e+07   4.95e-29
  2.3224e+07   2.14e-29
  2.4093e+07   8.35e-30
  2.4995e+07   3.01e-30
  2.5930e+07   9.43e-31
  2.6901e+07   2.51e-31
  2.7908e+07   5.79e-32
  2.8953e+07   1.07e-32
  3.0037e+07   1.53e-33
  3.1161e+07   1.66e-34
  3.2327e+07   1.25e-35
  3.3537e+07   5.96e-37
  3.4793e+07   1.72e-38
  3.6095e+07   2.61e-40
  3.7446e+07   1.74e-42
  3.8848e+07   4.29e-45
  4.0302e+07   3.04e-48
  4.1811e+07   4.33e-52
  4.3376e+07   8.37e-57
  4.5000e+07   1.27e-62
