#  E [MeV]   Flux [# cm^{-2} s^{-1}  MeV^{-1}]
  3.0000e+04   2.29e-27
  3.1232e+04   2.20e-27
  3.2514e+04   2.11e-27
  3.3849e+04   2.03e-27
  3.5238e+04   1.95e-27
  3.6685e+04   1.87e-27
  3.8191e+04   1.80e-27
  3.9759e+04   1.73e-27
  4.1391e+04   1.66e-27
  4.3090e+04   1.59e-27
  4.4859e+04   1.53e-27
  4.6701e+04   1.47e-27
  4.8618e+04   1.41e-27
  5.0614e+04   1.35e-27
  5.2692e+04   1.30e-27
  5.4855e+04   1.24e-27
  5.7107e+04   1.19e-27
  5.9451e+04   1.14e-27
  6.1892e+04   1.09e-27
  6.4433e+04   1.05e-27
  6.7078e+04   1.00e-27
  6.9832e+04   9.60e-28
  7.2699e+04   9.18e-28
  7.5683e+04   8.79e-28
  7.8790e+04   8.40e-28
  8.2025e+04   8.04e-28
  8.5392e+04   7.69e-28
  8.8898e+04   7.35e-28
  9.2547e+04   7.02e-28
  9.6347e+04   6.71e-28
  1.0030e+05   6.40e-28
  1.0442e+05   6.12e-28
  1.0871e+05   5.84e-28
  1.1317e+05   5.57e-28
  1.1782e+05   5.31e-28
  1.2265e+05   5.07e-28
  1.2769e+05   4.83e-28
  1.3293e+05   4.60e-28
  1.3839e+05   4.38e-28
  1.4407e+05   4.17e-28
  1.4998e+05   3.97e-28
  1.5614e+05   3.78e-28
  1.6255e+05   3.60e-28
  1.6922e+05   3.42e-28
  1.7617e+05   3.25e-28
  1.8340e+05   3.09e-28
  1.9093e+05   2.93e-28
  1.9877e+05   2.78e-28
  2.0693e+05   2.64e-28
  2.1543e+05   2.51e-28
  2.2427e+05   2.38e-28
  2.3348e+05   2.25e-28
  2.4306e+05   2.13e-28
  2.5304e+05   2.02e-28
  2.6343e+05   1.91e-28
  2.7424e+05   1.80e-28
  2.8550e+05   1.71e-28
  2.9722e+05   1.61e-28
  3.0942e+05   1.52e-28
  3.2213e+05   1.43e-28
  3.3535e+05   1.35e-28
  3.4912e+05   1.28e-28
  3.6345e+05   1.20e-28
  3.7837e+05   1.13e-28
  3.9390e+05   1.06e-28
  4.1008e+05   1.00e-28
  4.2691e+05   9.40e-29
  4.4444e+05   8.84e-29
  4.6268e+05   8.30e-29
  4.8168e+05   7.79e-29
  5.0145e+05   7.31e-29
  5.2204e+05   6.86e-29
  5.4347e+05   6.43e-29
  5.6578e+05   6.03e-29
  5.8901e+05   5.66e-29
  6.1319e+05   5.30e-29
  6.3836e+05   4.97e-29
  6.6457e+05   4.66e-29
  6.9185e+05   4.37e-29
  7.2025e+05   4.10e-29
  7.4982e+05   3.84e-29
  7.8061e+05   3.61e-29
  8.1265e+05   3.39e-29
  8.4601e+05   3.18e-29
  8.8075e+05   2.99e-29
  9.1690e+05   2.81e-29
  9.5455e+05   2.65e-29
  9.9373e+05   2.49e-29
  1.0345e+06   2.35e-29
  1.0770e+06   2.21e-29
  1.1212e+06   2.09e-29
  1.1672e+06   1.98e-29
  1.2152e+06   1.87e-29
  1.2650e+06   1.77e-29
  1.3170e+06   1.68e-29
  1.3711e+06   1.59e-29
  1.4273e+06   1.51e-29
  1.4859e+06   1.43e-29
  1.5469e+06   1.36e-29
  1.6104e+06   1.30e-29
  1.6766e+06   1.24e-29
  1.7454e+06   1.18e-29
  1.8170e+06   1.13e-29
  1.8916e+06   1.08e-29
  1.9693e+06   1.03e-29
  2.0501e+06   9.84e-30
  2.1343e+06   9.42e-30
  2.2219e+06   9.03e-30
  2.3131e+06   8.66e-30
  2.4081e+06   8.30e-30
  2.5070e+06   7.96e-30
  2.6099e+06   7.64e-30
  2.7170e+06   7.33e-30
  2.8286e+06   7.03e-30
  2.9447e+06   6.75e-30
  3.0656e+06   6.48e-30
  3.1914e+06   6.21e-30
  3.3225e+06   5.96e-30
  3.4589e+06   5.71e-30
  3.6008e+06   5.47e-30
  3.7487e+06   5.24e-30
  3.9026e+06   5.01e-30
  4.0628e+06   4.79e-30
  4.2296e+06   4.57e-30
  4.4032e+06   4.36e-30
  4.5840e+06   4.15e-30
  4.7722e+06   3.95e-30
  4.9681e+06   3.75e-30
  5.1720e+06   3.56e-30
  5.3844e+06   3.37e-30
  5.6054e+06   3.18e-30
  5.8355e+06   3.00e-30
  6.0751e+06   2.82e-30
  6.3245e+06   2.64e-30
  6.5841e+06   2.46e-30
  6.8544e+06   2.30e-30
  7.1358e+06   2.13e-30
  7.4288e+06   1.97e-30
  7.7338e+06   1.81e-30
  8.0513e+06   1.66e-30
  8.3818e+06   1.51e-30
  8.7259e+06   1.37e-30
  9.0841e+06   1.23e-30
  9.4571e+06   1.10e-30
  9.8453e+06   9.78e-31
  1.0249e+07   8.61e-31
  1.0670e+07   7.52e-31
  1.1108e+07   6.49e-31
  1.1564e+07   5.54e-31
  1.2039e+07   4.68e-31
  1.2533e+07   3.89e-31
  1.3048e+07   3.19e-31
  1.3584e+07   2.57e-31
  1.4141e+07   2.03e-31
  1.4722e+07   1.58e-31
  1.5326e+07   1.19e-31
  1.5955e+07   8.75e-32
  1.6610e+07   6.24e-32
  1.7292e+07   4.29e-32
  1.8002e+07   2.83e-32
  1.8741e+07   1.79e-32
  1.9511e+07   1.07e-32
  2.0312e+07   6.02e-33
  2.1145e+07   3.16e-33
  2.2013e+07   1.53e-33
  2.2917e+07   6.69e-34
  2.3858e+07   2.62e-34
  2.4837e+07   8.97e-35
  2.5857e+07   2.62e-35
  2.6919e+07   6.35e-36
  2.8024e+07   1.22e-36
  2.9174e+07   1.79e-37
  3.0372e+07   1.89e-38
  3.1619e+07   1.33e-39
  3.2917e+07   5.68e-41
  3.4268e+07   1.31e-42
  3.5675e+07   1.41e-44
  3.7140e+07   5.77e-47
  3.8664e+07   7.01e-50
  4.0252e+07   1.81e-53
  4.1904e+07   6.37e-58
  4.3624e+07   1.69e-63
  4.5415e+07   1.51e-70
  4.7280e+07   3.54e-71
  4.9221e+07   3.13e-71
  5.1241e+07   2.75e-71
  5.3345e+07   2.40e-71
  5.5535e+07   2.09e-71
  5.7815e+07   1.81e-71
  6.0188e+07   1.55e-71
  6.2659e+07   1.35e-71
  6.5232e+07   1.15e-71
  6.7910e+07   9.78e-72
  7.0698e+07   8.47e-72
  7.3600e+07   7.24e-72
  7.6621e+07   6.19e-72
  7.9767e+07   5.43e-72
  8.3042e+07   4.72e-72
  8.6451e+07   4.17e-72
  9.0000e+07   3.80e-72
