#  E [MeV]   Flux [# cm^{-2} s^{-1}  MeV^{-1}]
  3.0000e+04   9.50e-19
  3.0854e+04   9.15e-19
  3.1733e+04   8.82e-19
  3.2636e+04   8.50e-19
  3.3566e+04   8.19e-19
  3.4521e+04   7.89e-19
  3.5504e+04   7.60e-19
  3.6515e+04   7.32e-19
  3.7555e+04   7.05e-19
  3.8625e+04   6.79e-19
  3.9724e+04   6.53e-19
  4.0855e+04   6.29e-19
  4.2019e+04   6.06e-19
  4.3215e+04   5.83e-19
  4.4446e+04   5.61e-19
  4.5711e+04   5.40e-19
  4.7013e+04   5.20e-19
  4.8352e+04   5.00e-19
  4.9728e+04   4.81e-19
  5.1144e+04   4.63e-19
  5.2601e+04   4.45e-19
  5.4099e+04   4.28e-19
  5.5639e+04   4.12e-19
  5.7223e+04   3.96e-19
  5.8853e+04   3.81e-19
  6.0528e+04   3.66e-19
  6.2252e+04   3.51e-19
  6.4025e+04   3.38e-19
  6.5848e+04   3.24e-19
  6.7723e+04   3.11e-19
  6.9651e+04   2.99e-19
  7.1634e+04   2.87e-19
  7.3674e+04   2.75e-19
  7.5772e+04   2.64e-19
  7.7929e+04   2.54e-19
  8.0148e+04   2.43e-19
  8.2431e+04   2.33e-19
  8.4778e+04   2.23e-19
  8.7192e+04   2.14e-19
  8.9674e+04   2.05e-19
  9.2228e+04   1.96e-19
  9.4854e+04   1.88e-19
  9.7555e+04   1.80e-19
  1.0033e+05   1.72e-19
  1.0319e+05   1.64e-19
  1.0613e+05   1.57e-19
  1.0915e+05   1.50e-19
  1.1226e+05   1.43e-19
  1.1545e+05   1.36e-19
  1.1874e+05   1.30e-19
  1.2212e+05   1.24e-19
  1.2560e+05   1.18e-19
  1.2918e+05   1.13e-19
  1.3286e+05   1.08e-19
  1.3664e+05   1.03e-19
  1.4053e+05   9.79e-20
  1.4453e+05   9.33e-20
  1.4865e+05   8.90e-20
  1.5288e+05   8.48e-20
  1.5723e+05   8.07e-20
  1.6171e+05   7.69e-20
  1.6631e+05   7.33e-20
  1.7105e+05   6.97e-20
  1.7592e+05   6.64e-20
  1.8093e+05   6.32e-20
  1.8608e+05   6.01e-20
  1.9138e+05   5.71e-20
  1.9683e+05   5.43e-20
  2.0243e+05   5.16e-20
  2.0820e+05   4.90e-20
  2.1413e+05   4.65e-20
  2.2022e+05   4.41e-20
  2.2649e+05   4.18e-20
  2.3294e+05   3.96e-20
  2.3958e+05   3.75e-20
  2.4640e+05   3.55e-20
  2.5341e+05   3.36e-20
  2.6063e+05   3.18e-20
  2.6805e+05   3.01e-20
  2.7568e+05   2.85e-20
  2.8353e+05   2.69e-20
  2.9161e+05   2.54e-20
  2.9991e+05   2.40e-20
  3.0845e+05   2.26e-20
  3.1723e+05   2.13e-20
  3.2627e+05   2.01e-20
  3.3556e+05   1.89e-20
  3.4511e+05   1.78e-20
  3.5494e+05   1.68e-20
  3.6504e+05   1.58e-20
  3.7544e+05   1.48e-20
  3.8613e+05   1.39e-20
  3.9712e+05   1.31e-20
  4.0843e+05   1.23e-20
  4.2006e+05   1.15e-20
  4.3202e+05   1.07e-20
  4.4432e+05   1.01e-20
  4.5698e+05   9.41e-21
  4.6999e+05   8.79e-21
  4.8337e+05   8.21e-21
  4.9713e+05   7.65e-21
  5.1129e+05   7.14e-21
  5.2585e+05   6.66e-21
  5.4082e+05   6.20e-21
  5.5622e+05   5.76e-21
  5.7206e+05   5.36e-21
  5.8835e+05   4.98e-21
  6.0510e+05   4.62e-21
  6.2233e+05   4.28e-21
  6.4005e+05   3.97e-21
  6.5828e+05   3.68e-21
  6.7702e+05   3.41e-21
  6.9630e+05   3.14e-21
  7.1613e+05   2.91e-21
  7.3652e+05   2.69e-21
  7.5749e+05   2.48e-21
  7.7906e+05   2.28e-21
  8.0124e+05   2.10e-21
  8.2406e+05   1.93e-21
  8.4752e+05   1.77e-21
  8.7165e+05   1.62e-21
  8.9647e+05   1.49e-21
  9.2200e+05   1.36e-21
  9.4825e+05   1.25e-21
  9.7526e+05   1.14e-21
  1.0030e+06   1.04e-21
  1.0316e+06   9.49e-22
  1.0610e+06   8.65e-22
  1.0912e+06   7.85e-22
  1.1222e+06   7.13e-22
  1.1542e+06   6.51e-22
  1.1871e+06   5.91e-22
  1.2209e+06   5.34e-22
  1.2556e+06   4.83e-22
  1.2914e+06   4.40e-22
  1.3281e+06   3.98e-22
  1.3660e+06   3.59e-22
  1.4049e+06   3.23e-22
  1.4449e+06   2.92e-22
  1.4860e+06   2.64e-22
  1.5283e+06   2.37e-22
  1.5718e+06   2.12e-22
  1.6166e+06   1.91e-22
  1.6626e+06   1.72e-22
  1.7100e+06   1.53e-22
  1.7587e+06   1.36e-22
  1.8087e+06   1.23e-22
  1.8602e+06   1.10e-22
  1.9132e+06   9.77e-23
  1.9677e+06   8.62e-23
  2.0237e+06   7.74e-23
  2.0813e+06   6.91e-23
  2.1406e+06   6.13e-23
  2.2016e+06   5.39e-23
  2.2642e+06   4.81e-23
  2.3287e+06   4.29e-23
  2.3950e+06   3.79e-23
  2.4632e+06   3.32e-23
  2.5334e+06   2.95e-23
  2.6055e+06   2.62e-23
  2.6797e+06   2.31e-23
  2.7560e+06   2.02e-23
  2.8345e+06   1.78e-23
  2.9152e+06   1.58e-23
  2.9982e+06   1.39e-23
  3.0836e+06   1.21e-23
  3.1714e+06   1.06e-23
  3.2617e+06   9.44e-24
  3.3545e+06   8.30e-24
  3.4501e+06   7.22e-24
  3.5483e+06   6.32e-24
  3.6493e+06   5.62e-24
  3.7532e+06   4.95e-24
  3.8601e+06   4.32e-24
  3.9700e+06   3.79e-24
  4.0831e+06   3.38e-24
  4.1993e+06   3.00e-24
  4.3189e+06   2.64e-24
  4.4419e+06   2.32e-24
  4.5684e+06   2.09e-24
  4.6985e+06   1.87e-24
  4.8322e+06   1.65e-24
  4.9698e+06   1.46e-24
  5.1114e+06   1.33e-24
  5.2569e+06   1.20e-24
  5.4066e+06   1.08e-24
  5.5605e+06   9.69e-25
  5.7189e+06   8.89e-25
  5.8817e+06   8.13e-25
  6.0492e+06   7.40e-25
  6.2214e+06   6.71e-25
  6.3986e+06   6.17e-25
  6.5808e+06   5.65e-25
  6.7682e+06   5.17e-25
  6.9609e+06   4.70e-25
  7.1591e+06   4.29e-25
  7.3630e+06   3.90e-25
  7.5726e+06   3.53e-25
  7.7882e+06   3.18e-25
  8.0100e+06   2.91e-25
