#  E [MeV]   Flux [# cm^{-2} s^{-1}  MeV^{-1}]
  3.0000e+04   9.96e-20
  3.0765e+04   9.59e-20
  3.1549e+04   9.24e-20
  3.2354e+04   8.89e-20
  3.3179e+04   8.56e-20
  3.4025e+04   8.24e-20
  3.4892e+04   7.93e-20
  3.5782e+04   7.63e-20
  3.6695e+04   7.33e-20
  3.7630e+04   7.05e-20
  3.8590e+04   6.78e-20
  3.9574e+04   6.52e-20
  4.0583e+04   6.26e-20
  4.1618e+04   6.02e-20
  4.2679e+04   5.78e-20
  4.3767e+04   5.55e-20
  4.4883e+04   5.33e-20
  4.6028e+04   5.12e-20
  4.7201e+04   4.91e-20
  4.8405e+04   4.71e-20
  4.9639e+04   4.52e-20
  5.0905e+04   4.34e-20
  5.2203e+04   4.16e-20
  5.3534e+04   3.99e-20
  5.4899e+04   3.83e-20
  5.6299e+04   3.67e-20
  5.7734e+04   3.51e-20
  5.9207e+04   3.37e-20
  6.0716e+04   3.22e-20
  6.2264e+04   3.09e-20
  6.3852e+04   2.96e-20
  6.5480e+04   2.83e-20
  6.7150e+04   2.71e-20
  6.8862e+04   2.59e-20
  7.0618e+04   2.48e-20
  7.2419e+04   2.37e-20
  7.4265e+04   2.27e-20
  7.6159e+04   2.17e-20
  7.8101e+04   2.07e-20
  8.0092e+04   1.98e-20
  8.2135e+04   1.89e-20
  8.4229e+04   1.80e-20
  8.6377e+04   1.72e-20
  8.8579e+04   1.64e-20
  9.0838e+04   1.57e-20
  9.3154e+04   1.50e-20
  9.5529e+04   1.43e-20
  9.7965e+04   1.36e-20
  1.0046e+05   1.30e-20
  1.0303e+05   1.23e-20
  1.0565e+05   1.17e-20
  1.0835e+05   1.12e-20
  1.1111e+05   1.06e-20
  1.1394e+05   1.01e-20
  1.1685e+05   9.62e-21
  1.1983e+05   9.13e-21
  1.2288e+05   8.68e-21
  1.2602e+05   8.24e-21
  1.2923e+05   7.82e-21
  1.3252e+05   7.42e-21
  1.3590e+05   7.04e-21
  1.3937e+05   6.67e-21
  1.4292e+05   6.32e-21
  1.4657e+05   5.99e-21
  1.5030e+05   5.67e-21
  1.5414e+05   5.37e-21
  1.5807e+05   5.08e-21
  1.6210e+05   4.80e-21
  1.6623e+05   4.53e-21
  1.7047e+05   4.28e-21
  1.7482e+05   4.05e-21
  1.7927e+05   3.82e-21
  1.8384e+05   3.60e-21
  1.8853e+05   3.39e-21
  1.9334e+05   3.20e-21
  1.9827e+05   3.02e-21
  2.0333e+05   2.84e-21
  2.0851e+05   2.67e-21
  2.1383e+05   2.51e-21
  2.1928e+05   2.36e-21
  2.2487e+05   2.22e-21
  2.3060e+05   2.08e-21
  2.3648e+05   1.95e-21
  2.4251e+05   1.82e-21
  2.4870e+05   1.71e-21
  2.5504e+05   1.60e-21
  2.6154e+05   1.50e-21
  2.6821e+05   1.39e-21
  2.7505e+05   1.30e-21
  2.8206e+05   1.22e-21
  2.8926e+05   1.14e-21
  2.9663e+05   1.06e-21
  3.0420e+05   9.85e-22
  3.1195e+05   9.19e-22
  3.1991e+05   8.55e-22
  3.2806e+05   7.94e-22
  3.3643e+05   7.36e-22
  3.4501e+05   6.84e-22
  3.5381e+05   6.35e-22
  3.6283e+05   5.89e-22
  3.7208e+05   5.44e-22
  3.8157e+05   5.03e-22
  3.9130e+05   4.66e-22
  4.0127e+05   4.31e-22
  4.1150e+05   3.98e-22
  4.2200e+05   3.66e-22
  4.3276e+05   3.38e-22
  4.4379e+05   3.11e-22
  4.5511e+05   2.86e-22
  4.6671e+05   2.63e-22
  4.7861e+05   2.41e-22
  4.9082e+05   2.22e-22
  5.0333e+05   2.04e-22
  5.1617e+05   1.86e-22
  5.2933e+05   1.70e-22
  5.4283e+05   1.56e-22
  5.5667e+05   1.43e-22
  5.7086e+05   1.31e-22
  5.8542e+05   1.19e-22
  6.0035e+05   1.08e-22
  6.1565e+05   9.89e-23
  6.3135e+05   9.03e-23
  6.4745e+05   8.22e-23
  6.6396e+05   7.45e-23
  6.8089e+05   6.77e-23
  6.9825e+05   6.17e-23
  7.1606e+05   5.61e-23
  7.3432e+05   5.08e-23
  7.5304e+05   4.58e-23
  7.7224e+05   4.17e-23
  7.9193e+05   3.79e-23
  8.1213e+05   3.43e-23
  8.3283e+05   3.09e-23
  8.5407e+05   2.79e-23
  8.7585e+05   2.53e-23
  8.9818e+05   2.29e-23
  9.2108e+05   2.06e-23
  9.4457e+05   1.85e-23
  9.6866e+05   1.67e-23
  9.9336e+05   1.51e-23
  1.0187e+06   1.36e-23
  1.0447e+06   1.22e-23
  1.0713e+06   1.10e-23
  1.0986e+06   9.93e-24
  1.1266e+06   8.97e-24
  1.1554e+06   8.06e-24
  1.1848e+06   7.21e-24
  1.2150e+06   6.49e-24
  1.2460e+06   5.87e-24
  1.2778e+06   5.29e-24
  1.3104e+06   4.74e-24
  1.3438e+06   4.22e-24
  1.3780e+06   3.83e-24
  1.4132e+06   3.47e-24
  1.4492e+06   3.12e-24
  1.4862e+06   2.79e-24
  1.5241e+06   2.51e-24
  1.5629e+06   2.28e-24
  1.6028e+06   2.06e-24
  1.6436e+06   1.85e-24
  1.6856e+06   1.66e-24
  1.7285e+06   1.51e-24
  1.7726e+06   1.37e-24
  1.8178e+06   1.24e-24
  1.8642e+06   1.12e-24
  1.9117e+06   1.02e-24
  1.9604e+06   9.31e-25
  2.0104e+06   8.50e-25
  2.0617e+06   7.73e-25
  2.1143e+06   7.01e-25
  2.1682e+06   6.43e-25
  2.2235e+06   5.92e-25
  2.2802e+06   5.43e-25
  2.3383e+06   4.97e-25
  2.3979e+06   4.55e-25
  2.4591e+06   4.21e-25
  2.5218e+06   3.89e-25
  2.5861e+06   3.59e-25
  2.6520e+06   3.30e-25
  2.7196e+06   3.05e-25
  2.7890e+06   2.84e-25
  2.8601e+06   2.63e-25
  2.9330e+06   2.44e-25
  3.0078e+06   2.25e-25
  3.0845e+06   2.10e-25
  3.1632e+06   1.96e-25
  3.2438e+06   1.82e-25
  3.3265e+06   1.69e-25
  3.4113e+06   1.57e-25
  3.4983e+06   1.46e-25
  3.5875e+06   1.35e-25
  3.6790e+06   1.25e-25
  3.7728e+06   1.15e-25
  3.8690e+06   1.06e-25
  3.9677e+06   9.78e-26
  4.0689e+06   8.97e-26
  4.1726e+06   8.21e-26
  4.2790e+06   7.53e-26
  4.3881e+06   7.02e-26
  4.5000e+06   6.53e-26
