#  E [MeV]   Flux [# cm^{-2} s^{-1}  MeV^{-1}]
  3.0000e+04   2.36e-20
  3.1033e+04   2.28e-20
  3.2102e+04   2.20e-20
  3.3207e+04   2.12e-20
  3.4350e+04   2.04e-20
  3.5533e+04   1.97e-20
  3.6757e+04   1.90e-20
  3.8022e+04   1.83e-20
  3.9332e+04   1.76e-20
  4.0686e+04   1.70e-20
  4.2087e+04   1.63e-20
  4.3536e+04   1.57e-20
  4.5035e+04   1.51e-20
  4.6586e+04   1.46e-20
  4.8190e+04   1.40e-20
  4.9850e+04   1.35e-20
  5.1566e+04   1.30e-20
  5.3342e+04   1.25e-20
  5.5178e+04   1.20e-20
  5.7078e+04   1.16e-20
  5.9044e+04   1.11e-20
  6.1077e+04   1.07e-20
  6.3180e+04   1.03e-20
  6.5356e+04   9.88e-21
  6.7606e+04   9.49e-21
  6.9934e+04   9.11e-21
  7.2342e+04   8.75e-21
  7.4833e+04   8.41e-21
  7.7410e+04   8.07e-21
  8.0075e+04   7.74e-21
  8.2833e+04   7.43e-21
  8.5685e+04   7.12e-21
  8.8635e+04   6.83e-21
  9.1687e+04   6.54e-21
  9.4844e+04   6.27e-21
  9.8110e+04   6.01e-21
  1.0149e+05   5.75e-21
  1.0498e+05   5.51e-21
  1.0860e+05   5.27e-21
  1.1234e+05   5.04e-21
  1.1621e+05   4.82e-21
  1.2021e+05   4.61e-21
  1.2435e+05   4.41e-21
  1.2863e+05   4.21e-21
  1.3306e+05   4.02e-21
  1.3764e+05   3.84e-21
  1.4238e+05   3.66e-21
  1.4728e+05   3.50e-21
  1.5235e+05   3.33e-21
  1.5760e+05   3.18e-21
  1.6302e+05   3.02e-21
  1.6864e+05   2.88e-21
  1.7445e+05   2.74e-21
  1.8045e+05   2.61e-21
  1.8667e+05   2.48e-21
  1.9309e+05   2.35e-21
  1.9974e+05   2.23e-21
  2.0662e+05   2.12e-21
  2.1373e+05   2.01e-21
  2.2109e+05   1.91e-21
  2.2871e+05   1.80e-21
  2.3658e+05   1.71e-21
  2.4473e+05   1.62e-21
  2.5316e+05   1.53e-21
  2.6187e+05   1.44e-21
  2.7089e+05   1.36e-21
  2.8022e+05   1.29e-21
  2.8987e+05   1.21e-21
  2.9985e+05   1.14e-21
  3.1017e+05   1.07e-21
  3.2085e+05   1.01e-21
  3.3190e+05   9.49e-22
  3.4333e+05   8.91e-22
  3.5515e+05   8.36e-22
  3.6738e+05   7.84e-22
  3.8003e+05   7.34e-22
  3.9312e+05   6.87e-22
  4.0665e+05   6.42e-22
  4.2066e+05   6.00e-22
  4.3514e+05   5.61e-22
  4.5013e+05   5.23e-22
  4.6562e+05   4.87e-22
  4.8166e+05   4.54e-22
  4.9824e+05   4.23e-22
  5.1540e+05   3.93e-22
  5.3315e+05   3.65e-22
  5.5150e+05   3.39e-22
  5.7050e+05   3.15e-22
  5.9014e+05   2.92e-22
  6.1046e+05   2.70e-22
  6.3148e+05   2.50e-22
  6.5322e+05   2.32e-22
  6.7572e+05   2.14e-22
  6.9898e+05   1.98e-22
  7.2305e+05   1.83e-22
  7.4795e+05   1.69e-22
  7.7371e+05   1.56e-22
  8.0035e+05   1.44e-22
  8.2791e+05   1.32e-22
  8.5641e+05   1.22e-22
  8.8590e+05   1.12e-22
  9.1641e+05   1.04e-22
  9.4796e+05   9.53e-23
  9.8061e+05   8.78e-23
  1.0144e+06   8.08e-23
  1.0493e+06   7.43e-23
  1.0854e+06   6.84e-23
  1.1228e+06   6.29e-23
  1.1615e+06   5.78e-23
  1.2015e+06   5.31e-23
  1.2428e+06   4.88e-23
  1.2856e+06   4.48e-23
  1.3299e+06   4.11e-23
  1.3757e+06   3.78e-23
  1.4231e+06   3.47e-23
  1.4721e+06   3.19e-23
  1.5228e+06   2.92e-23
  1.5752e+06   2.68e-23
  1.6294e+06   2.46e-23
  1.6855e+06   2.26e-23
  1.7436e+06   2.07e-23
  1.8036e+06   1.90e-23
  1.8657e+06   1.74e-23
  1.9300e+06   1.59e-23
  1.9964e+06   1.46e-23
  2.0652e+06   1.33e-23
  2.1363e+06   1.22e-23
  2.2098e+06   1.11e-23
  2.2859e+06   1.01e-23
  2.3646e+06   9.24e-24
  2.4461e+06   8.44e-24
  2.5303e+06   7.68e-24
  2.6174e+06   6.98e-24
  2.7075e+06   6.34e-24
  2.8008e+06   5.76e-24
  2.8972e+06   5.22e-24
  2.9970e+06   4.72e-24
  3.1002e+06   4.28e-24
  3.2069e+06   3.87e-24
  3.3173e+06   3.48e-24
  3.4316e+06   3.14e-24
  3.5497e+06   2.83e-24
  3.6720e+06   2.54e-24
  3.7984e+06   2.27e-24
  3.9292e+06   2.04e-24
  4.0645e+06   1.82e-24
  4.2044e+06   1.62e-24
  4.3492e+06   1.45e-24
  4.4990e+06   1.29e-24
  4.6539e+06   1.14e-24
  4.8141e+06   1.00e-24
  4.9799e+06   8.86e-25
  5.1514e+06   7.77e-25
  5.3288e+06   6.78e-25
  5.5123e+06   5.95e-25
  5.7021e+06   5.18e-25
  5.8984e+06   4.47e-25
  6.1015e+06   3.88e-25
  6.3116e+06   3.35e-25
  6.5289e+06   2.87e-25
  6.7538e+06   2.45e-25
  6.9863e+06   2.09e-25
  7.2269e+06   1.77e-25
  7.4757e+06   1.48e-25
  7.7331e+06   1.25e-25
  7.9994e+06   1.05e-25
  8.2749e+06   8.67e-26
  8.5598e+06   7.16e-26
  8.8546e+06   5.90e-26
  9.1594e+06   4.79e-26
  9.4748e+06   3.85e-26
  9.8011e+06   3.11e-26
  1.0139e+07   2.48e-26
  1.0488e+07   1.93e-26
  1.0849e+07   1.52e-26
  1.1222e+07   1.18e-26
  1.1609e+07   8.93e-27
  1.2009e+07   6.70e-27
  1.2422e+07   5.05e-27
  1.2850e+07   3.71e-27
  1.3292e+07   2.64e-27
  1.3750e+07   1.91e-27
  1.4223e+07   1.34e-27
  1.4713e+07   9.12e-28
  1.5220e+07   6.13e-28
  1.5744e+07   4.07e-28
  1.6286e+07   2.59e-28
  1.6847e+07   1.58e-28
  1.7427e+07   9.67e-29
  1.8027e+07   5.62e-29
  1.8648e+07   3.07e-29
  1.9290e+07   1.64e-29
  1.9954e+07   8.28e-30
  2.0641e+07   3.87e-30
  2.1352e+07   1.68e-30
  2.2087e+07   6.85e-31
  2.2848e+07   2.49e-31
  2.3634e+07   7.87e-32
  2.4448e+07   2.32e-32
  2.5290e+07   5.75e-33
