#  E [GeV]   # per interaction  [GeV^{-1}]
  3.0000e+01   1.38e+00
  3.1232e+01   1.32e+00
  3.2514e+01   1.25e+00
  3.3849e+01   1.20e+00
  3.5238e+01   1.14e+00
  3.6685e+01   1.09e+00
  3.8191e+01   1.04e+00
  3.9759e+01   9.88e-01
  4.1391e+01   9.41e-01
  4.3090e+01   8.97e-01
  4.4859e+01   8.54e-01
  4.6701e+01   8.13e-01
  4.8618e+01   7.74e-01
  5.0614e+01   7.37e-01
  5.2692e+01   7.02e-01
  5.4855e+01   6.68e-01
  5.7107e+01   6.35e-01
  5.9451e+01   6.04e-01
  6.1892e+01   5.75e-01
  6.4433e+01   5.46e-01
  6.7078e+01   5.20e-01
  6.9832e+01   4.94e-01
  7.2699e+01   4.69e-01
  7.5683e+01   4.46e-01
  7.8790e+01   4.23e-01
  8.2025e+01   4.02e-01
  8.5392e+01   3.82e-01
  8.8898e+01   3.62e-01
  9.2547e+01   3.44e-01
  9.6347e+01   3.26e-01
  1.0030e+02   3.10e-01
  1.0442e+02   2.94e-01
  1.0871e+02   2.79e-01
  1.1317e+02   2.64e-01
  1.1782e+02   2.50e-01
  1.2265e+02   2.37e-01
  1.2769e+02   2.25e-01
  1.3293e+02   2.13e-01
  1.3839e+02   2.01e-01
  1.4407e+02   1.91e-01
  1.4998e+02   1.80e-01
  1.5614e+02   1.71e-01
  1.6255e+02   1.61e-01
  1.6922e+02   1.52e-01
  1.7617e+02   1.44e-01
  1.8340e+02   1.36e-01
  1.9093e+02   1.28e-01
  1.9877e+02   1.21e-01
  2.0693e+02   1.14e-01
  2.1543e+02   1.08e-01
  2.2427e+02   1.02e-01
  2.3348e+02   9.57e-02
  2.4306e+02   9.02e-02
  2.5304e+02   8.48e-02
  2.6343e+02   7.98e-02
  2.7424e+02   7.50e-02
  2.8550e+02   7.05e-02
  2.9722e+02   6.62e-02
  3.0942e+02   6.21e-02
  3.2213e+02   5.82e-02
  3.3535e+02   5.45e-02
  3.4912e+02   5.11e-02
  3.6345e+02   4.78e-02
  3.7837e+02   4.47e-02
  3.9390e+02   4.18e-02
  4.1008e+02   3.90e-02
  4.2691e+02   3.64e-02
  4.4444e+02   3.39e-02
  4.6268e+02   3.16e-02
  4.8168e+02   2.94e-02
  5.0145e+02   2.74e-02
  5.2204e+02   2.55e-02
  5.4347e+02   2.37e-02
  5.6578e+02   2.20e-02
  5.8901e+02   2.04e-02
  6.1319e+02   1.89e-02
  6.3836e+02   1.75e-02
  6.6457e+02   1.62e-02
  6.9185e+02   1.50e-02
  7.2025e+02   1.39e-02
  7.4982e+02   1.28e-02
  7.8061e+02   1.18e-02
  8.1265e+02   1.09e-02
  8.4601e+02   1.01e-02
  8.8075e+02   9.31e-03
  9.1690e+02   8.58e-03
  9.5455e+02   7.91e-03
  9.9373e+02   7.30e-03
  1.0345e+03   6.72e-03
  1.0770e+03   6.19e-03
  1.1212e+03   5.71e-03
  1.1672e+03   5.25e-03
  1.2152e+03   4.84e-03
  1.2650e+03   4.45e-03
  1.3170e+03   4.10e-03
  1.3711e+03   3.77e-03
  1.4273e+03   3.47e-03
  1.4859e+03   3.19e-03
  1.5469e+03   2.94e-03
  1.6104e+03   2.70e-03
  1.6766e+03   2.48e-03
  1.7454e+03   2.28e-03
  1.8170e+03   2.09e-03
  1.8916e+03   1.92e-03
  1.9693e+03   1.76e-03
  2.0501e+03   1.62e-03
  2.1343e+03   1.48e-03
  2.2219e+03   1.36e-03
  2.3131e+03   1.24e-03
  2.4081e+03   1.14e-03
  2.5070e+03   1.04e-03
  2.6099e+03   9.49e-04
  2.7170e+03   8.64e-04
  2.8286e+03   7.88e-04
  2.9447e+03   7.17e-04
  3.0656e+03   6.51e-04
  3.1914e+03   5.92e-04
  3.3225e+03   5.37e-04
  3.4589e+03   4.86e-04
  3.6008e+03   4.40e-04
  3.7487e+03   3.97e-04
  3.9026e+03   3.57e-04
  4.0628e+03   3.22e-04
  4.2296e+03   2.89e-04
  4.4032e+03   2.59e-04
  4.5840e+03   2.31e-04
  4.7722e+03   2.06e-04
  4.9681e+03   1.84e-04
  5.1720e+03   1.63e-04
  5.3844e+03   1.44e-04
  5.6054e+03   1.27e-04
  5.8355e+03   1.12e-04
  6.0751e+03   9.83e-05
  6.3245e+03   8.63e-05
  6.5841e+03   7.53e-05
  6.8544e+03   6.52e-05
  7.1358e+03   5.67e-05
  7.4288e+03   4.89e-05
  7.7338e+03   4.19e-05
  8.0513e+03   3.59e-05
  8.3818e+03   3.05e-05
  8.7259e+03   2.58e-05
  9.0841e+03   2.18e-05
  9.4571e+03   1.82e-05
  9.8453e+03   1.51e-05
  1.0249e+04   1.25e-05
  1.0670e+04   1.02e-05
  1.1108e+04   8.29e-06
  1.1564e+04   6.68e-06
  1.2039e+04   5.30e-06
  1.2533e+04   4.19e-06
  1.3048e+04   3.27e-06
  1.3584e+04   2.49e-06
  1.4141e+04   1.90e-06
  1.4722e+04   1.42e-06
  1.5326e+04   1.03e-06
  1.5955e+04   7.41e-07
  1.6610e+04   5.17e-07
  1.7292e+04   3.50e-07
  1.8002e+04   2.33e-07
  1.8741e+04   1.48e-07
  1.9511e+04   9.02e-08
  2.0312e+04   5.31e-08
  2.1145e+04   2.93e-08
  2.2013e+04   1.53e-08
  2.2917e+04   7.45e-09
  2.3858e+04   3.30e-09
  2.4837e+04   1.33e-09
  2.5857e+04   4.77e-10
  2.6919e+04   1.47e-10
  2.8024e+04   3.84e-11
  2.9174e+04   8.12e-12
  3.0372e+04   1.32e-12
  3.1619e+04   1.60e-13
  3.2917e+04   1.31e-14
  3.4268e+04   6.62e-16
  3.5675e+04   1.88e-17
  3.7140e+04   2.51e-19
  3.8664e+04   1.29e-21
  4.0252e+04   2.00e-24
  4.1904e+04   6.39e-28
  4.3624e+04   2.65e-32
  4.5415e+04   7.58e-38
  4.7280e+04   6.11e-45
  4.9221e+04   2.97e-47
  5.1241e+04   2.70e-47
  5.3345e+04   2.44e-47
  5.5535e+04   2.23e-47
  5.7815e+04   2.03e-47
  6.0188e+04   1.85e-47
  6.2659e+04   1.70e-47
  6.5232e+04   1.56e-47
  6.7910e+04   1.42e-47
  7.0698e+04   1.30e-47
  7.3600e+04   1.18e-47
  7.6621e+04   1.07e-47
  7.9767e+04   9.56e-48
  8.3042e+04   8.53e-48
  8.6451e+04   7.60e-48
  9.0000e+04   6.91e-48
