#  E [GeV]   # per interaction  [GeV^{-1}]
  3.0000e+01   1.92e-02
  3.0962e+01   1.85e-02
  3.1955e+01   1.79e-02
  3.2979e+01   1.72e-02
  3.4037e+01   1.66e-02
  3.5128e+01   1.60e-02
  3.6254e+01   1.54e-02
  3.7417e+01   1.49e-02
  3.8616e+01   1.43e-02
  3.9855e+01   1.38e-02
  4.1132e+01   1.33e-02
  4.2451e+01   1.28e-02
  4.3812e+01   1.24e-02
  4.5217e+01   1.19e-02
  4.6667e+01   1.15e-02
  4.8163e+01   1.11e-02
  4.9707e+01   1.07e-02
  5.1301e+01   1.03e-02
  5.2946e+01   9.90e-03
  5.4644e+01   9.53e-03
  5.6396e+01   9.18e-03
  5.8204e+01   8.85e-03
  6.0070e+01   8.52e-03
  6.1996e+01   8.21e-03
  6.3984e+01   7.91e-03
  6.6035e+01   7.62e-03
  6.8153e+01   7.34e-03
  7.0338e+01   7.07e-03
  7.2593e+01   6.81e-03
  7.4921e+01   6.56e-03
  7.7323e+01   6.32e-03
  7.9802e+01   6.09e-03
  8.2361e+01   5.87e-03
  8.5002e+01   5.65e-03
  8.7727e+01   5.45e-03
  9.0540e+01   5.25e-03
  9.3443e+01   5.06e-03
  9.6439e+01   4.88e-03
  9.9531e+01   4.71e-03
  1.0272e+02   4.54e-03
  1.0602e+02   4.38e-03
  1.0942e+02   4.22e-03
  1.1292e+02   4.07e-03
  1.1654e+02   3.93e-03
  1.2028e+02   3.79e-03
  1.2414e+02   3.66e-03
  1.2812e+02   3.54e-03
  1.3223e+02   3.41e-03
  1.3646e+02   3.30e-03
  1.4084e+02   3.19e-03
  1.4536e+02   3.08e-03
  1.5002e+02   2.97e-03
  1.5483e+02   2.87e-03
  1.5979e+02   2.78e-03
  1.6491e+02   2.68e-03
  1.7020e+02   2.59e-03
  1.7566e+02   2.51e-03
  1.8129e+02   2.43e-03
  1.8710e+02   2.34e-03
  1.9310e+02   2.27e-03
  1.9929e+02   2.20e-03
  2.0568e+02   2.12e-03
  2.1228e+02   2.06e-03
  2.1909e+02   1.99e-03
  2.2611e+02   1.93e-03
  2.3336e+02   1.86e-03
  2.4084e+02   1.80e-03
  2.4856e+02   1.75e-03
  2.5653e+02   1.69e-03
  2.6476e+02   1.64e-03
  2.7325e+02   1.58e-03
  2.8201e+02   1.53e-03
  2.9105e+02   1.48e-03
  3.0038e+02   1.43e-03
  3.1002e+02   1.39e-03
  3.1996e+02   1.34e-03
  3.3021e+02   1.30e-03
  3.4080e+02   1.26e-03
  3.5173e+02   1.21e-03
  3.6301e+02   1.17e-03
  3.7465e+02   1.13e-03
  3.8666e+02   1.10e-03
  3.9905e+02   1.06e-03
  4.1185e+02   1.02e-03
  4.2506e+02   9.87e-04
  4.3868e+02   9.53e-04
  4.5275e+02   9.20e-04
  4.6727e+02   8.87e-04
  4.8225e+02   8.56e-04
  4.9771e+02   8.25e-04
  5.1367e+02   7.95e-04
  5.3014e+02   7.66e-04
  5.4714e+02   7.38e-04
  5.6468e+02   7.11e-04
  5.8278e+02   6.85e-04
  6.0147e+02   6.59e-04
  6.2075e+02   6.35e-04
  6.4066e+02   6.11e-04
  6.6120e+02   5.88e-04
  6.8240e+02   5.65e-04
  7.0428e+02   5.44e-04
  7.2686e+02   5.23e-04
  7.5017e+02   5.03e-04
  7.7422e+02   4.84e-04
  7.9904e+02   4.65e-04
  8.2466e+02   4.47e-04
  8.5110e+02   4.30e-04
  8.7839e+02   4.13e-04
  9.0656e+02   3.97e-04
  9.3562e+02   3.82e-04
  9.6562e+02   3.67e-04
  9.9658e+02   3.53e-04
  1.0285e+03   3.39e-04
  1.0615e+03   3.26e-04
  1.0956e+03   3.14e-04
  1.1307e+03   3.01e-04
  1.1669e+03   2.90e-04
  1.2043e+03   2.79e-04
  1.2430e+03   2.68e-04
  1.2828e+03   2.58e-04
  1.3239e+03   2.48e-04
  1.3664e+03   2.38e-04
  1.4102e+03   2.29e-04
  1.4554e+03   2.20e-04
  1.5021e+03   2.12e-04
  1.5502e+03   2.04e-04
  1.6000e+03   1.96e-04
  1.6513e+03   1.88e-04
  1.7042e+03   1.81e-04
  1.7588e+03   1.74e-04
  1.8152e+03   1.67e-04
  1.8734e+03   1.60e-04
  1.9335e+03   1.54e-04
  1.9955e+03   1.47e-04
  2.0595e+03   1.41e-04
  2.1255e+03   1.36e-04
  2.1937e+03   1.30e-04
  2.2640e+03   1.24e-04
  2.3366e+03   1.19e-04
  2.4115e+03   1.14e-04
  2.4888e+03   1.09e-04
  2.5686e+03   1.04e-04
  2.6510e+03   9.92e-05
  2.7360e+03   9.45e-05
  2.8237e+03   8.99e-05
  2.9142e+03   8.56e-05
  3.0077e+03   8.13e-05
  3.1041e+03   7.71e-05
  3.2036e+03   7.30e-05
  3.3064e+03   6.91e-05
  3.4124e+03   6.52e-05
  3.5218e+03   6.14e-05
  3.6347e+03   5.78e-05
  3.7512e+03   5.44e-05
  3.8715e+03   5.10e-05
  3.9957e+03   4.77e-05
  4.1238e+03   4.46e-05
  4.2560e+03   4.16e-05
  4.3924e+03   3.87e-05
  4.5333e+03   3.59e-05
  4.6786e+03   3.32e-05
  4.8286e+03   3.07e-05
  4.9835e+03   2.82e-05
  5.1433e+03   2.59e-05
  5.3082e+03   2.38e-05
  5.4784e+03   2.17e-05
  5.6540e+03   1.97e-05
  5.8353e+03   1.79e-05
  6.0224e+03   1.62e-05
  6.2155e+03   1.45e-05
  6.4148e+03   1.30e-05
  6.6205e+03   1.15e-05
  6.8327e+03   1.02e-05
  7.0518e+03   9.02e-06
  7.2779e+03   7.90e-06
  7.5113e+03   6.89e-06
  7.7521e+03   5.98e-06
  8.0007e+03   5.16e-06
  8.2572e+03   4.41e-06
  8.5219e+03   3.75e-06
  8.7952e+03   3.18e-06
  9.0772e+03   2.67e-06
  9.3682e+03   2.22e-06
  9.6686e+03   1.83e-06
  9.9786e+03   1.50e-06
  1.0299e+04   1.21e-06
  1.0629e+04   9.67e-07
  1.0970e+04   7.73e-07
  1.1321e+04   6.08e-07
  1.1684e+04   4.70e-07
  1.2059e+04   3.61e-07
  1.2446e+04   2.77e-07
  1.2845e+04   2.08e-07
  1.3256e+04   1.53e-07
  1.3681e+04   1.14e-07
  1.4120e+04   8.34e-08
  1.4573e+04   5.97e-08
  1.5040e+04   4.21e-08
  1.5522e+04   3.04e-08
  1.6020e+04   2.14e-08
