#  E [MeV]   Flux [# cm^{-2} s^{-1}  MeV^{-1}]
  3.0000e+04   7.13e-26
  3.0962e+04   6.88e-26
  3.1955e+04   6.63e-26
  3.2979e+04   6.40e-26
  3.4037e+04   6.17e-26
  3.5128e+04   5.95e-26
  3.6254e+04   5.73e-26
  3.7417e+04   5.53e-26
  3.8616e+04   5.33e-26
  3.9855e+04   5.14e-26
  4.1132e+04   4.95e-26
  4.2451e+04   4.77e-26
  4.3812e+04   4.60e-26
  4.5217e+04   4.43e-26
  4.6667e+04   4.27e-26
  4.8163e+04   4.11e-26
  4.9707e+04   3.96e-26
  5.1301e+04   3.82e-26
  5.2946e+04   3.68e-26
  5.4644e+04   3.54e-26
  5.6396e+04   3.41e-26
  5.8204e+04   3.29e-26
  6.0070e+04   3.16e-26
  6.1996e+04   3.05e-26
  6.3984e+04   2.94e-26
  6.6035e+04   2.83e-26
  6.8153e+04   2.72e-26
  7.0338e+04   2.63e-26
  7.2593e+04   2.53e-26
  7.4921e+04   2.44e-26
  7.7323e+04   2.35e-26
  7.9802e+04   2.26e-26
  8.2361e+04   2.18e-26
  8.5002e+04   2.10e-26
  8.7727e+04   2.02e-26
  9.0540e+04   1.95e-26
  9.3443e+04   1.88e-26
  9.6439e+04   1.81e-26
  9.9531e+04   1.75e-26
  1.0272e+05   1.69e-26
  1.0602e+05   1.63e-26
  1.0942e+05   1.57e-26
  1.1292e+05   1.51e-26
  1.1654e+05   1.46e-26
  1.2028e+05   1.41e-26
  1.2414e+05   1.36e-26
  1.2812e+05   1.31e-26
  1.3223e+05   1.27e-26
  1.3646e+05   1.22e-26
  1.4084e+05   1.18e-26
  1.4536e+05   1.14e-26
  1.5002e+05   1.10e-26
  1.5483e+05   1.07e-26
  1.5979e+05   1.03e-26
  1.6491e+05   9.97e-27
  1.7020e+05   9.64e-27
  1.7566e+05   9.32e-27
  1.8129e+05   9.01e-27
  1.8710e+05   8.71e-27
  1.9310e+05   8.43e-27
  1.9929e+05   8.16e-27
  2.0568e+05   7.89e-27
  2.1228e+05   7.63e-27
  2.1909e+05   7.39e-27
  2.2611e+05   7.15e-27
  2.3336e+05   6.92e-27
  2.4084e+05   6.70e-27
  2.4856e+05   6.49e-27
  2.5653e+05   6.28e-27
  2.6476e+05   6.08e-27
  2.7325e+05   5.88e-27
  2.8201e+05   5.69e-27
  2.9105e+05   5.51e-27
  3.0038e+05   5.33e-27
  3.1002e+05   5.16e-27
  3.1996e+05   4.99e-27
  3.3021e+05   4.82e-27
  3.4080e+05   4.66e-27
  3.5173e+05   4.51e-27
  3.6301e+05   4.36e-27
  3.7465e+05   4.21e-27
  3.8666e+05   4.07e-27
  3.9905e+05   3.93e-27
  4.1185e+05   3.80e-27
  4.2506e+05   3.67e-27
  4.3868e+05   3.54e-27
  4.5275e+05   3.42e-27
  4.6727e+05   3.29e-27
  4.8225e+05   3.18e-27
  4.9771e+05   3.06e-27
  5.1367e+05   2.95e-27
  5.3014e+05   2.85e-27
  5.4714e+05   2.74e-27
  5.6468e+05   2.64e-27
  5.8278e+05   2.54e-27
  6.0147e+05   2.45e-27
  6.2075e+05   2.36e-27
  6.4066e+05   2.27e-27
  6.6120e+05   2.18e-27
  6.8240e+05   2.10e-27
  7.0428e+05   2.02e-27
  7.2686e+05   1.94e-27
  7.5017e+05   1.87e-27
  7.7422e+05   1.80e-27
  7.9904e+05   1.73e-27
  8.2466e+05   1.66e-27
  8.5110e+05   1.60e-27
  8.7839e+05   1.54e-27
  9.0656e+05   1.48e-27
  9.3562e+05   1.42e-27
  9.6562e+05   1.36e-27
  9.9658e+05   1.31e-27
  1.0285e+06   1.26e-27
  1.0615e+06   1.21e-27
  1.0956e+06   1.16e-27
  1.1307e+06   1.12e-27
  1.1669e+06   1.08e-27
  1.2043e+06   1.04e-27
  1.2430e+06   9.95e-28
  1.2828e+06   9.57e-28
  1.3239e+06   9.20e-28
  1.3664e+06   8.85e-28
  1.4102e+06   8.51e-28
  1.4554e+06   8.18e-28
  1.5021e+06   7.87e-28
  1.5502e+06   7.56e-28
  1.6000e+06   7.27e-28
  1.6513e+06   6.99e-28
  1.7042e+06   6.71e-28
  1.7588e+06   6.45e-28
  1.8152e+06   6.19e-28
  1.8734e+06   5.95e-28
  1.9335e+06   5.71e-28
  1.9955e+06   5.47e-28
  2.0595e+06   5.25e-28
  2.1255e+06   5.04e-28
  2.1937e+06   4.82e-28
  2.2640e+06   4.62e-28
  2.3366e+06   4.42e-28
  2.4115e+06   4.23e-28
  2.4888e+06   4.04e-28
  2.5686e+06   3.86e-28
  2.6510e+06   3.68e-28
  2.7360e+06   3.51e-28
  2.8237e+06   3.34e-28
  2.9142e+06   3.18e-28
  3.0077e+06   3.02e-28
  3.1041e+06   2.86e-28
  3.2036e+06   2.71e-28
  3.3064e+06   2.56e-28
  3.4124e+06   2.42e-28
  3.5218e+06   2.28e-28
  3.6347e+06   2.15e-28
  3.7512e+06   2.02e-28
  3.8715e+06   1.89e-28
  3.9957e+06   1.77e-28
  4.1238e+06   1.66e-28
  4.2560e+06   1.54e-28
  4.3924e+06   1.44e-28
  4.5333e+06   1.33e-28
  4.6786e+06   1.23e-28
  4.8286e+06   1.14e-28
  4.9835e+06   1.05e-28
  5.1433e+06   9.64e-29
  5.3082e+06   8.83e-29
  5.4784e+06   8.05e-29
  5.6540e+06   7.33e-29
  5.8353e+06   6.65e-29
  6.0224e+06   6.00e-29
  6.2155e+06   5.39e-29
  6.4148e+06   4.82e-29
  6.6205e+06   4.29e-29
  6.8327e+06   3.80e-29
  7.0518e+06   3.35e-29
  7.2779e+06   2.94e-29
  7.5113e+06   2.56e-29
  7.7521e+06   2.22e-29
  8.0007e+06   1.92e-29
  8.2572e+06   1.64e-29
  8.5219e+06   1.39e-29
  8.7952e+06   1.18e-29
  9.0772e+06   9.91e-30
  9.3682e+06   8.23e-30
  9.6686e+06   6.80e-30
  9.9786e+06   5.57e-30
  1.0299e+07   4.50e-30
  1.0629e+07   3.59e-30
  1.0970e+07   2.87e-30
  1.1321e+07   2.26e-30
  1.1684e+07   1.74e-30
  1.2059e+07   1.34e-30
  1.2446e+07   1.03e-30
  1.2845e+07   7.73e-31
  1.3256e+07   5.67e-31
  1.3681e+07   4.22e-31
  1.4120e+07   3.10e-31
  1.4573e+07   2.22e-31
  1.5040e+07   1.56e-31
  1.5522e+07   1.13e-31
  1.6020e+07   7.95e-32
