#  E [GeV]   # per interaction  [GeV^{-1}]
  3.0000e+01   1.15e+00
  3.1141e+01   1.10e+00
  3.2326e+01   1.05e+00
  3.3556e+01   1.00e+00
  3.4832e+01   9.59e-01
  3.6157e+01   9.16e-01
  3.7533e+01   8.74e-01
  3.8961e+01   8.35e-01
  4.0443e+01   7.97e-01
  4.1982e+01   7.60e-01
  4.3579e+01   7.26e-01
  4.5237e+01   6.92e-01
  4.6958e+01   6.60e-01
  4.8744e+01   6.30e-01
  5.0598e+01   6.00e-01
  5.2523e+01   5.72e-01
  5.4521e+01   5.46e-01
  5.6596e+01   5.20e-01
  5.8749e+01   4.96e-01
  6.0984e+01   4.72e-01
  6.3304e+01   4.50e-01
  6.5712e+01   4.29e-01
  6.8212e+01   4.08e-01
  7.0807e+01   3.89e-01
  7.3500e+01   3.70e-01
  7.6297e+01   3.53e-01
  7.9199e+01   3.36e-01
  8.2212e+01   3.20e-01
  8.5340e+01   3.04e-01
  8.8586e+01   2.89e-01
  9.1956e+01   2.75e-01
  9.5455e+01   2.62e-01
  9.9086e+01   2.49e-01
  1.0286e+02   2.37e-01
  1.0677e+02   2.25e-01
  1.1083e+02   2.14e-01
  1.1505e+02   2.03e-01
  1.1942e+02   1.93e-01
  1.2397e+02   1.84e-01
  1.2868e+02   1.75e-01
  1.3358e+02   1.66e-01
  1.3866e+02   1.58e-01
  1.4394e+02   1.50e-01
  1.4941e+02   1.42e-01
  1.5509e+02   1.35e-01
  1.6100e+02   1.28e-01
  1.6712e+02   1.22e-01
  1.7348e+02   1.15e-01
  1.8008e+02   1.09e-01
  1.8693e+02   1.04e-01
  1.9404e+02   9.85e-02
  2.0142e+02   9.34e-02
  2.0908e+02   8.85e-02
  2.1704e+02   8.39e-02
  2.2529e+02   7.95e-02
  2.3387e+02   7.54e-02
  2.4276e+02   7.14e-02
  2.5200e+02   6.76e-02
  2.6158e+02   6.40e-02
  2.7154e+02   6.06e-02
  2.8187e+02   5.74e-02
  2.9259e+02   5.43e-02
  3.0372e+02   5.14e-02
  3.1527e+02   4.86e-02
  3.2727e+02   4.59e-02
  3.3972e+02   4.34e-02
  3.5264e+02   4.10e-02
  3.6606e+02   3.87e-02
  3.7998e+02   3.65e-02
  3.9444e+02   3.45e-02
  4.0945e+02   3.25e-02
  4.2502e+02   3.07e-02
  4.4119e+02   2.89e-02
  4.5798e+02   2.72e-02
  4.7540e+02   2.56e-02
  4.9348e+02   2.41e-02
  5.1226e+02   2.27e-02
  5.3175e+02   2.13e-02
  5.5198e+02   2.00e-02
  5.7297e+02   1.88e-02
  5.9477e+02   1.76e-02
  6.1740e+02   1.65e-02
  6.4089e+02   1.55e-02
  6.6527e+02   1.45e-02
  6.9058e+02   1.36e-02
  7.1685e+02   1.27e-02
  7.4412e+02   1.19e-02
  7.7243e+02   1.11e-02
  8.0181e+02   1.04e-02
  8.3232e+02   9.68e-03
  8.6398e+02   9.04e-03
  8.9685e+02   8.44e-03
  9.3097e+02   7.88e-03
  9.6638e+02   7.36e-03
  1.0031e+03   6.86e-03
  1.0413e+03   6.40e-03
  1.0809e+03   5.97e-03
  1.1220e+03   5.56e-03
  1.1647e+03   5.18e-03
  1.2090e+03   4.82e-03
  1.2550e+03   4.48e-03
  1.3028e+03   4.17e-03
  1.3523e+03   3.87e-03
  1.4038e+03   3.59e-03
  1.4572e+03   3.34e-03
  1.5126e+03   3.10e-03
  1.5702e+03   2.87e-03
  1.6299e+03   2.66e-03
  1.6919e+03   2.46e-03
  1.7563e+03   2.27e-03
  1.8231e+03   2.10e-03
  1.8925e+03   1.94e-03
  1.9645e+03   1.79e-03
  2.0392e+03   1.65e-03
  2.1168e+03   1.52e-03
  2.1973e+03   1.40e-03
  2.2809e+03   1.29e-03
  2.3677e+03   1.19e-03
  2.4577e+03   1.09e-03
  2.5512e+03   9.99e-04
  2.6483e+03   9.15e-04
  2.7490e+03   8.37e-04
  2.8536e+03   7.65e-04
  2.9622e+03   6.99e-04
  3.0749e+03   6.36e-04
  3.1918e+03   5.80e-04
  3.3133e+03   5.28e-04
  3.4393e+03   4.79e-04
  3.5702e+03   4.34e-04
  3.7060e+03   3.94e-04
  3.8470e+03   3.56e-04
  3.9933e+03   3.21e-04
  4.1452e+03   2.90e-04
  4.3029e+03   2.61e-04
  4.4666e+03   2.35e-04
  4.6366e+03   2.11e-04
  4.8129e+03   1.89e-04
  4.9960e+03   1.69e-04
  5.1861e+03   1.51e-04
  5.3834e+03   1.34e-04
  5.5882e+03   1.19e-04
  5.8008e+03   1.06e-04
  6.0215e+03   9.39e-05
  6.2506e+03   8.26e-05
  6.4883e+03   7.32e-05
  6.7352e+03   6.44e-05
  6.9914e+03   5.63e-05
  7.2574e+03   4.96e-05
  7.5335e+03   4.34e-05
  7.8201e+03   3.76e-05
  8.1176e+03   3.29e-05
  8.4264e+03   2.86e-05
  8.7470e+03   2.46e-05
  9.0797e+03   2.13e-05
  9.4251e+03   1.84e-05
  9.7837e+03   1.57e-05
  1.0156e+04   1.35e-05
  1.0542e+04   1.16e-05
  1.0943e+04   9.78e-06
  1.1360e+04   8.31e-06
  1.1792e+04   7.06e-06
  1.2240e+04   5.91e-06
  1.2706e+04   4.96e-06
  1.3189e+04   4.17e-06
  1.3691e+04   3.46e-06
  1.4212e+04   2.86e-06
  1.4753e+04   2.38e-06
  1.5314e+04   1.94e-06
  1.5897e+04   1.58e-06
  1.6501e+04   1.30e-06
  1.7129e+04   1.04e-06
  1.7781e+04   8.32e-07
  1.8457e+04   6.71e-07
  1.9159e+04   5.29e-07
  1.9888e+04   4.11e-07
  2.0645e+04   3.23e-07
  2.1430e+04   2.48e-07
  2.2245e+04   1.86e-07
  2.3092e+04   1.41e-07
  2.3970e+04   1.04e-07
  2.4882e+04   7.40e-08
  2.5829e+04   5.32e-08
  2.6811e+04   3.67e-08
  2.7831e+04   2.42e-08
  2.8890e+04   1.58e-08
  2.9989e+04   9.70e-09
  3.1130e+04   5.57e-09
  3.2314e+04   3.05e-09
  3.3544e+04   1.52e-09
  3.4820e+04   6.81e-10
  3.6144e+04   2.70e-10
  3.7519e+04   9.09e-11
  3.8947e+04   2.49e-11
  4.0428e+04   5.29e-12
  4.1966e+04   8.16e-13
  4.3563e+04   8.34e-14
  4.5220e+04   5.04e-15
  4.6941e+04   1.55e-16
  4.8726e+04   1.98e-18
  5.0580e+04   8.12e-21
