#  E [MeV]   Flux [# cm^{-2} s^{-1}  MeV^{-1}]
  3.0000e+04   3.70e-24
  3.0782e+04   3.58e-24
  3.1585e+04   3.45e-24
  3.2409e+04   3.33e-24
  3.3255e+04   3.22e-24
  3.4122e+04   3.11e-24
  3.5012e+04   3.00e-24
  3.5925e+04   2.89e-24
  3.6862e+04   2.79e-24
  3.7824e+04   2.69e-24
  3.8810e+04   2.60e-24
  3.9822e+04   2.50e-24
  4.0861e+04   2.42e-24
  4.1927e+04   2.33e-24
  4.3021e+04   2.25e-24
  4.4143e+04   2.17e-24
  4.5294e+04   2.09e-24
  4.6475e+04   2.01e-24
  4.7688e+04   1.94e-24
  4.8931e+04   1.87e-24
  5.0208e+04   1.80e-24
  5.1517e+04   1.74e-24
  5.2861e+04   1.68e-24
  5.4240e+04   1.61e-24
  5.5654e+04   1.56e-24
  5.7106e+04   1.50e-24
  5.8596e+04   1.44e-24
  6.0124e+04   1.39e-24
  6.1692e+04   1.34e-24
  6.3301e+04   1.29e-24
  6.4952e+04   1.24e-24
  6.6647e+04   1.20e-24
  6.8385e+04   1.15e-24
  7.0169e+04   1.11e-24
  7.1999e+04   1.07e-24
  7.3877e+04   1.03e-24
  7.5804e+04   9.90e-25
  7.7781e+04   9.53e-25
  7.9810e+04   9.17e-25
  8.1891e+04   8.83e-25
  8.4027e+04   8.50e-25
  8.6219e+04   8.18e-25
  8.8468e+04   7.88e-25
  9.0775e+04   7.58e-25
  9.3143e+04   7.30e-25
  9.5572e+04   7.02e-25
  9.8065e+04   6.76e-25
  1.0062e+05   6.51e-25
  1.0325e+05   6.26e-25
  1.0594e+05   6.03e-25
  1.0870e+05   5.80e-25
  1.1154e+05   5.59e-25
  1.1445e+05   5.38e-25
  1.1743e+05   5.18e-25
  1.2050e+05   4.98e-25
  1.2364e+05   4.79e-25
  1.2686e+05   4.61e-25
  1.3017e+05   4.44e-25
  1.3357e+05   4.27e-25
  1.3705e+05   4.11e-25
  1.4063e+05   3.96e-25
  1.4429e+05   3.81e-25
  1.4806e+05   3.67e-25
  1.5192e+05   3.53e-25
  1.5588e+05   3.40e-25
  1.5995e+05   3.27e-25
  1.6412e+05   3.15e-25
  1.6840e+05   3.03e-25
  1.7279e+05   2.92e-25
  1.7730e+05   2.81e-25
  1.8193e+05   2.71e-25
  1.8667e+05   2.61e-25
  1.9154e+05   2.51e-25
  1.9654e+05   2.42e-25
  2.0166e+05   2.33e-25
  2.0692e+05   2.24e-25
  2.1232e+05   2.16e-25
  2.1786e+05   2.08e-25
  2.2354e+05   2.00e-25
  2.2937e+05   1.93e-25
  2.3535e+05   1.86e-25
  2.4149e+05   1.79e-25
  2.4779e+05   1.72e-25
  2.5425e+05   1.66e-25
  2.6088e+05   1.60e-25
  2.6769e+05   1.54e-25
  2.7467e+05   1.49e-25
  2.8184e+05   1.43e-25
  2.8919e+05   1.38e-25
  2.9673e+05   1.33e-25
  3.0447e+05   1.28e-25
  3.1241e+05   1.24e-25
  3.2056e+05   1.19e-25
  3.2892e+05   1.15e-25
  3.3750e+05   1.11e-25
  3.4630e+05   1.07e-25
  3.5533e+05   1.03e-25
  3.6460e+05   9.94e-26
  3.7411e+05   9.58e-26
  3.8387e+05   9.24e-26
  3.9388e+05   8.91e-26
  4.0416e+05   8.60e-26
  4.1470e+05   8.29e-26
  4.2551e+05   8.00e-26
  4.3661e+05   7.72e-26
  4.4800e+05   7.45e-26
  4.5969e+05   7.18e-26
  4.7168e+05   6.93e-26
  4.8398e+05   6.69e-26
  4.9660e+05   6.45e-26
  5.0956e+05   6.22e-26
  5.2285e+05   6.01e-26
  5.3648e+05   5.79e-26
  5.5048e+05   5.59e-26
  5.6483e+05   5.39e-26
  5.7957e+05   5.21e-26
  5.9468e+05   5.02e-26
  6.1020e+05   4.85e-26
  6.2611e+05   4.68e-26
  6.4244e+05   4.52e-26
  6.5920e+05   4.36e-26
  6.7639e+05   4.21e-26
  6.9403e+05   4.06e-26
  7.1214e+05   3.92e-26
  7.3071e+05   3.78e-26
  7.4977e+05   3.65e-26
  7.6933e+05   3.52e-26
  7.8939e+05   3.40e-26
  8.0998e+05   3.28e-26
  8.3111e+05   3.17e-26
  8.5279e+05   3.06e-26
  8.7503e+05   2.96e-26
  8.9785e+05   2.85e-26
  9.2127e+05   2.76e-26
  9.4530e+05   2.66e-26
  9.6996e+05   2.57e-26
  9.9526e+05   2.48e-26
  1.0212e+06   2.40e-26
  1.0479e+06   2.31e-26
  1.0752e+06   2.23e-26
  1.1032e+06   2.16e-26
  1.1320e+06   2.08e-26
  1.1615e+06   2.01e-26
  1.1918e+06   1.94e-26
  1.2229e+06   1.87e-26
  1.2548e+06   1.81e-26
  1.2875e+06   1.75e-26
  1.3211e+06   1.68e-26
  1.3556e+06   1.63e-26
  1.3909e+06   1.57e-26
  1.4272e+06   1.51e-26
  1.4644e+06   1.46e-26
  1.5026e+06   1.41e-26
  1.5418e+06   1.36e-26
  1.5820e+06   1.31e-26
  1.6233e+06   1.27e-26
  1.6657e+06   1.22e-26
  1.7091e+06   1.18e-26
  1.7537e+06   1.14e-26
  1.7994e+06   1.10e-26
  1.8464e+06   1.06e-26
  1.8945e+06   1.02e-26
  1.9439e+06   9.82e-27
  1.9946e+06   9.46e-27
  2.0467e+06   9.12e-27
  2.1000e+06   8.79e-27
  2.1548e+06   8.47e-27
  2.2110e+06   8.16e-27
  2.2687e+06   7.86e-27
  2.3279e+06   7.57e-27
  2.3886e+06   7.29e-27
  2.4509e+06   7.02e-27
  2.5148e+06   6.76e-27
  2.5804e+06   6.50e-27
  2.6477e+06   6.25e-27
  2.7168e+06   6.02e-27
  2.7876e+06   5.79e-27
  2.8603e+06   5.56e-27
  2.9349e+06   5.35e-27
  3.0115e+06   5.14e-27
  3.0900e+06   4.94e-27
  3.1706e+06   4.75e-27
  3.2533e+06   4.56e-27
  3.3382e+06   4.38e-27
  3.4253e+06   4.21e-27
  3.5146e+06   4.04e-27
  3.6063e+06   3.88e-27
  3.7003e+06   3.72e-27
  3.7969e+06   3.57e-27
  3.8959e+06   3.42e-27
  3.9975e+06   3.28e-27
  4.1018e+06   3.14e-27
  4.2088e+06   3.01e-27
  4.3185e+06   2.89e-27
  4.4312e+06   2.76e-27
  4.5467e+06   2.64e-27
  4.6653e+06   2.53e-27
  4.7870e+06   2.42e-27
  4.9119e+06   2.31e-27
  5.0400e+06   2.22e-27
