#  E [MeV]   Flux [# cm^{-2} s^{-1}  MeV^{-1}]
  3.0000e+04   1.42e-24
  3.1232e+04   1.35e-24
  3.2514e+04   1.29e-24
  3.3849e+04   1.23e-24
  3.5238e+04   1.17e-24
  3.6685e+04   1.12e-24
  3.8191e+04   1.07e-24
  3.9759e+04   1.02e-24
  4.1391e+04   9.69e-25
  4.3090e+04   9.23e-25
  4.4859e+04   8.80e-25
  4.6701e+04   8.38e-25
  4.8618e+04   7.98e-25
  5.0614e+04   7.60e-25
  5.2692e+04   7.23e-25
  5.4855e+04   6.88e-25
  5.7107e+04   6.55e-25
  5.9451e+04   6.23e-25
  6.1892e+04   5.93e-25
  6.4433e+04   5.64e-25
  6.7078e+04   5.37e-25
  6.9832e+04   5.10e-25
  7.2699e+04   4.85e-25
  7.5683e+04   4.61e-25
  7.8790e+04   4.38e-25
  8.2025e+04   4.16e-25
  8.5392e+04   3.96e-25
  8.8898e+04   3.76e-25
  9.2547e+04   3.57e-25
  9.6347e+04   3.39e-25
  1.0030e+05   3.22e-25
  1.0442e+05   3.05e-25
  1.0871e+05   2.90e-25
  1.1317e+05   2.75e-25
  1.1782e+05   2.61e-25
  1.2265e+05   2.47e-25
  1.2769e+05   2.35e-25
  1.3293e+05   2.22e-25
  1.3839e+05   2.11e-25
  1.4407e+05   2.00e-25
  1.4998e+05   1.89e-25
  1.5614e+05   1.79e-25
  1.6255e+05   1.70e-25
  1.6922e+05   1.61e-25
  1.7617e+05   1.52e-25
  1.8340e+05   1.44e-25
  1.9093e+05   1.36e-25
  1.9877e+05   1.29e-25
  2.0693e+05   1.22e-25
  2.1543e+05   1.15e-25
  2.2427e+05   1.09e-25
  2.3348e+05   1.03e-25
  2.4306e+05   9.74e-26
  2.5304e+05   9.21e-26
  2.6343e+05   8.69e-26
  2.7424e+05   8.21e-26
  2.8550e+05   7.75e-26
  2.9722e+05   7.31e-26
  3.0942e+05   6.89e-26
  3.2213e+05   6.50e-26
  3.3535e+05   6.13e-26
  3.4912e+05   5.78e-26
  3.6345e+05   5.44e-26
  3.7837e+05   5.13e-26
  3.9390e+05   4.82e-26
  4.1008e+05   4.54e-26
  4.2691e+05   4.27e-26
  4.4444e+05   4.02e-26
  4.6268e+05   3.78e-26
  4.8168e+05   3.55e-26
  5.0145e+05   3.33e-26
  5.2204e+05   3.13e-26
  5.4347e+05   2.94e-26
  5.6578e+05   2.76e-26
  5.8901e+05   2.58e-26
  6.1319e+05   2.42e-26
  6.3836e+05   2.27e-26
  6.6457e+05   2.12e-26
  6.9185e+05   1.99e-26
  7.2025e+05   1.86e-26
  7.4982e+05   1.74e-26
  7.8061e+05   1.63e-26
  8.1265e+05   1.52e-26
  8.4601e+05   1.42e-26
  8.8075e+05   1.32e-26
  9.1690e+05   1.23e-26
  9.5455e+05   1.15e-26
  9.9373e+05   1.07e-26
  1.0345e+06   9.99e-27
  1.0770e+06   9.30e-27
  1.1212e+06   8.65e-27
  1.1672e+06   8.05e-27
  1.2152e+06   7.49e-27
  1.2650e+06   6.96e-27
  1.3170e+06   6.47e-27
  1.3711e+06   6.00e-27
  1.4273e+06   5.57e-27
  1.4859e+06   5.17e-27
  1.5469e+06   4.79e-27
  1.6104e+06   4.44e-27
  1.6766e+06   4.11e-27
  1.7454e+06   3.81e-27
  1.8170e+06   3.52e-27
  1.8916e+06   3.26e-27
  1.9693e+06   3.01e-27
  2.0501e+06   2.78e-27
  2.1343e+06   2.56e-27
  2.2219e+06   2.36e-27
  2.3131e+06   2.18e-27
  2.4081e+06   2.00e-27
  2.5070e+06   1.84e-27
  2.6099e+06   1.69e-27
  2.7170e+06   1.55e-27
  2.8286e+06   1.42e-27
  2.9447e+06   1.31e-27
  3.0656e+06   1.19e-27
  3.1914e+06   1.09e-27
  3.3225e+06   9.99e-28
  3.4589e+06   9.11e-28
  3.6008e+06   8.31e-28
  3.7487e+06   7.57e-28
  3.9026e+06   6.88e-28
  4.0628e+06   6.26e-28
  4.2296e+06   5.69e-28
  4.4032e+06   5.15e-28
  4.5840e+06   4.67e-28
  4.7722e+06   4.22e-28
  4.9681e+06   3.80e-28
  5.1720e+06   3.43e-28
  5.3844e+06   3.09e-28
  5.6054e+06   2.77e-28
  5.8355e+06   2.50e-28
  6.0751e+06   2.24e-28
  6.3245e+06   2.00e-28
  6.5841e+06   1.79e-28
  6.8544e+06   1.60e-28
  7.1358e+06   1.42e-28
  7.4288e+06   1.27e-28
  7.7338e+06   1.12e-28
  8.0513e+06   9.96e-29
  8.3818e+06   8.84e-29
  8.7259e+06   7.79e-29
  9.0841e+06   6.87e-29
  9.4571e+06   6.05e-29
  9.8453e+06   5.29e-29
  1.0249e+07   4.64e-29
  1.0670e+07   4.06e-29
  1.1108e+07   3.53e-29
  1.1564e+07   3.08e-29
  1.2039e+07   2.68e-29
  1.2533e+07   2.30e-29
  1.3048e+07   2.00e-29
  1.3584e+07   1.72e-29
  1.4141e+07   1.47e-29
  1.4722e+07   1.27e-29
  1.5326e+07   1.08e-29
  1.5955e+07   9.14e-30
  1.6610e+07   7.78e-30
  1.7292e+07   6.55e-30
  1.8002e+07   5.48e-30
  1.8741e+07   4.59e-30
  1.9511e+07   3.80e-30
  2.0312e+07   3.13e-30
  2.1145e+07   2.58e-30
  2.2013e+07   2.08e-30
  2.2917e+07   1.68e-30
  2.3858e+07   1.34e-30
  2.4837e+07   1.05e-30
  2.5857e+07   8.20e-31
  2.6919e+07   6.27e-31
  2.8024e+07   4.64e-31
  2.9174e+07   3.41e-31
  3.0372e+07   2.42e-31
  3.1619e+07   1.63e-31
  3.2917e+07   1.07e-31
  3.4268e+07   6.62e-32
  3.5675e+07   3.79e-32
  3.7140e+07   2.02e-32
  3.8664e+07   9.52e-33
  4.0252e+07   3.90e-33
  4.1904e+07   1.34e-33
  4.3624e+07   3.63e-34
  4.5415e+07   7.20e-35
  4.7280e+07   9.57e-36
  4.9221e+07   7.36e-37
  5.1241e+07   2.75e-38
  5.3345e+07   3.82e-40
  5.5535e+07   1.37e-42
  5.7815e+07   7.54e-46
  6.0188e+07   2.97e-50
  6.2659e+07   2.71e-56
  6.5232e+07   1.11e-64
  6.7910e+07   1.52e-71
  7.0698e+07   1.38e-71
  7.3600e+07   1.26e-71
  7.6621e+07   1.15e-71
  7.9767e+07   1.04e-71
  8.3042e+07   9.28e-72
  8.6451e+07   8.28e-72
  9.0000e+07   7.40e-72
