#  E [MeV]   Flux [# cm^{-2} s^{-1}  MeV^{-1}]
  3.0000e+04   2.79e-20
  3.1123e+04   2.67e-20
  3.2288e+04   2.55e-20
  3.3497e+04   2.44e-20
  3.4751e+04   2.33e-20
  3.6051e+04   2.23e-20
  3.7401e+04   2.13e-20
  3.8801e+04   2.04e-20
  4.0253e+04   1.94e-20
  4.1760e+04   1.86e-20
  4.3324e+04   1.77e-20
  4.4945e+04   1.69e-20
  4.6628e+04   1.62e-20
  4.8373e+04   1.54e-20
  5.0184e+04   1.47e-20
  5.2063e+04   1.41e-20
  5.4011e+04   1.34e-20
  5.6033e+04   1.28e-20
  5.8131e+04   1.22e-20
  6.0307e+04   1.16e-20
  6.2564e+04   1.11e-20
  6.4906e+04   1.06e-20
  6.7336e+04   1.01e-20
  6.9857e+04   9.62e-21
  7.2472e+04   9.16e-21
  7.5184e+04   8.73e-21
  7.7999e+04   8.31e-21
  8.0919e+04   7.91e-21
  8.3948e+04   7.53e-21
  8.7090e+04   7.17e-21
  9.0350e+04   6.82e-21
  9.3732e+04   6.49e-21
  9.7241e+04   6.17e-21
  1.0088e+05   5.87e-21
  1.0466e+05   5.58e-21
  1.0858e+05   5.31e-21
  1.1264e+05   5.04e-21
  1.1686e+05   4.79e-21
  1.2123e+05   4.55e-21
  1.2577e+05   4.32e-21
  1.3048e+05   4.10e-21
  1.3536e+05   3.89e-21
  1.4043e+05   3.69e-21
  1.4568e+05   3.50e-21
  1.5114e+05   3.32e-21
  1.5680e+05   3.15e-21
  1.6266e+05   2.98e-21
  1.6875e+05   2.82e-21
  1.7507e+05   2.67e-21
  1.8162e+05   2.53e-21
  1.8842e+05   2.39e-21
  1.9548e+05   2.26e-21
  2.0279e+05   2.14e-21
  2.1039e+05   2.02e-21
  2.1826e+05   1.91e-21
  2.2643e+05   1.80e-21
  2.3491e+05   1.70e-21
  2.4370e+05   1.60e-21
  2.5282e+05   1.51e-21
  2.6229e+05   1.42e-21
  2.7211e+05   1.34e-21
  2.8229e+05   1.26e-21
  2.9286e+05   1.18e-21
  3.0382e+05   1.11e-21
  3.1519e+05   1.04e-21
  3.2699e+05   9.76e-22
  3.3923e+05   9.15e-22
  3.5193e+05   8.56e-22
  3.6511e+05   8.01e-22
  3.7877e+05   7.49e-22
  3.9295e+05   7.00e-22
  4.0766e+05   6.54e-22
  4.2292e+05   6.10e-22
  4.3875e+05   5.68e-22
  4.5518e+05   5.29e-22
  4.7222e+05   4.93e-22
  4.8989e+05   4.58e-22
  5.0823e+05   4.26e-22
  5.2726e+05   3.96e-22
  5.4699e+05   3.67e-22
  5.6747e+05   3.41e-22
  5.8871e+05   3.16e-22
  6.1075e+05   2.93e-22
  6.3361e+05   2.71e-22
  6.5733e+05   2.51e-22
  6.8194e+05   2.32e-22
  7.0746e+05   2.14e-22
  7.3395e+05   1.98e-22
  7.6142e+05   1.83e-22
  7.8992e+05   1.68e-22
  8.1949e+05   1.55e-22
  8.5017e+05   1.43e-22
  8.8199e+05   1.32e-22
  9.1501e+05   1.22e-22
  9.4926e+05   1.12e-22
  9.8479e+05   1.03e-22
  1.0217e+06   9.47e-23
  1.0599e+06   8.70e-23
  1.0996e+06   8.00e-23
  1.1407e+06   7.35e-23
  1.1834e+06   6.74e-23
  1.2277e+06   6.19e-23
  1.2737e+06   5.68e-23
  1.3214e+06   5.20e-23
  1.3708e+06   4.77e-23
  1.4222e+06   4.37e-23
  1.4754e+06   4.00e-23
  1.5306e+06   3.66e-23
  1.5879e+06   3.35e-23
  1.6474e+06   3.06e-23
  1.7090e+06   2.79e-23
  1.7730e+06   2.56e-23
  1.8394e+06   2.33e-23
  1.9082e+06   2.12e-23
  1.9797e+06   1.94e-23
  2.0538e+06   1.77e-23
  2.1306e+06   1.61e-23
  2.2104e+06   1.46e-23
  2.2931e+06   1.33e-23
  2.3790e+06   1.20e-23
  2.4680e+06   1.09e-23
  2.5604e+06   9.89e-24
  2.6563e+06   8.93e-24
  2.7557e+06   8.07e-24
  2.8589e+06   7.29e-24
  2.9659e+06   6.56e-24
  3.0769e+06   5.90e-24
  3.1921e+06   5.32e-24
  3.3116e+06   4.77e-24
  3.4355e+06   4.27e-24
  3.5641e+06   3.83e-24
  3.6976e+06   3.42e-24
  3.8360e+06   3.04e-24
  3.9796e+06   2.72e-24
  4.1285e+06   2.42e-24
  4.2831e+06   2.14e-24
  4.4434e+06   1.90e-24
  4.6097e+06   1.68e-24
  4.7823e+06   1.47e-24
  4.9613e+06   1.30e-24
  5.1470e+06   1.14e-24
  5.3397e+06   9.96e-25
  5.5396e+06   8.72e-25
  5.7470e+06   7.62e-25
  5.9621e+06   6.59e-25
  6.1853e+06   5.72e-25
  6.4168e+06   4.96e-25
  6.6570e+06   4.26e-25
  6.9062e+06   3.66e-25
  7.1647e+06   3.15e-25
  7.4329e+06   2.68e-25
  7.7112e+06   2.27e-25
  7.9998e+06   1.94e-25
  8.2993e+06   1.63e-25
  8.6100e+06   1.37e-25
  8.9323e+06   1.15e-25
  9.2666e+06   9.58e-26
  9.6135e+06   7.87e-26
  9.9734e+06   6.54e-26
  1.0347e+07   5.37e-26
  1.0734e+07   4.34e-26
  1.1136e+07   3.54e-26
  1.1553e+07   2.85e-26
  1.1985e+07   2.26e-26
  1.2434e+07   1.80e-26
  1.2899e+07   1.42e-26
  1.3382e+07   1.10e-26
  1.3883e+07   8.46e-27
  1.4403e+07   6.47e-27
  1.4942e+07   4.83e-27
  1.5501e+07   3.58e-27
  1.6081e+07   2.62e-27
  1.6683e+07   1.86e-27
  1.7308e+07   1.30e-27
  1.7956e+07   8.97e-28
  1.8628e+07   5.97e-28
  1.9325e+07   3.84e-28
  2.0049e+07   2.41e-28
  2.0799e+07   1.45e-28
  2.1578e+07   8.23e-29
  2.2386e+07   4.48e-29
  2.3224e+07   2.27e-29
  2.4093e+07   1.06e-29
  2.4995e+07   4.56e-30
  2.5930e+07   1.76e-30
  2.6901e+07   5.94e-31
  2.7908e+07   1.74e-31
  2.8953e+07   4.28e-32
  3.0037e+07   8.45e-33
  3.1161e+07   1.30e-33
  3.2327e+07   1.46e-34
  3.3537e+07   1.12e-35
  3.4793e+07   5.40e-37
  3.6095e+07   1.47e-38
  3.7446e+07   1.99e-40
  3.8848e+07   1.11e-42
  4.0302e+07   2.08e-45
  4.1811e+07   9.67e-49
  4.3376e+07   7.76e-53
  4.5000e+07   6.59e-58
