#  E [GeV]   # per interaction  [GeV^{-1}]
  3.0000e+01   2.77e-02
  3.1141e+01   2.66e-02
  3.2326e+01   2.56e-02
  3.3556e+01   2.46e-02
  3.4832e+01   2.37e-02
  3.6157e+01   2.28e-02
  3.7533e+01   2.19e-02
  3.8961e+01   2.10e-02
  4.0443e+01   2.02e-02
  4.1982e+01   1.94e-02
  4.3579e+01   1.86e-02
  4.5237e+01   1.79e-02
  4.6958e+01   1.72e-02
  4.8744e+01   1.65e-02
  5.0598e+01   1.58e-02
  5.2523e+01   1.52e-02
  5.4521e+01   1.46e-02
  5.6596e+01   1.40e-02
  5.8749e+01   1.34e-02
  6.0984e+01   1.28e-02
  6.3304e+01   1.23e-02
  6.5712e+01   1.18e-02
  6.8212e+01   1.13e-02
  7.0807e+01   1.08e-02
  7.3500e+01   1.03e-02
  7.6297e+01   9.88e-03
  7.9199e+01   9.45e-03
  8.2212e+01   9.04e-03
  8.5340e+01   8.64e-03
  8.8586e+01   8.26e-03
  9.1956e+01   7.89e-03
  9.5455e+01   7.54e-03
  9.9086e+01   7.20e-03
  1.0286e+02   6.88e-03
  1.0677e+02   6.57e-03
  1.1083e+02   6.27e-03
  1.1505e+02   5.98e-03
  1.1942e+02   5.70e-03
  1.2397e+02   5.44e-03
  1.2868e+02   5.19e-03
  1.3358e+02   4.94e-03
  1.3866e+02   4.71e-03
  1.4394e+02   4.49e-03
  1.4941e+02   4.27e-03
  1.5509e+02   4.07e-03
  1.6100e+02   3.87e-03
  1.6712e+02   3.68e-03
  1.7348e+02   3.50e-03
  1.8008e+02   3.33e-03
  1.8693e+02   3.17e-03
  1.9404e+02   3.01e-03
  2.0142e+02   2.86e-03
  2.0908e+02   2.72e-03
  2.1704e+02   2.58e-03
  2.2529e+02   2.45e-03
  2.3387e+02   2.32e-03
  2.4276e+02   2.20e-03
  2.5200e+02   2.09e-03
  2.6158e+02   1.98e-03
  2.7154e+02   1.88e-03
  2.8187e+02   1.78e-03
  2.9259e+02   1.69e-03
  3.0372e+02   1.60e-03
  3.1527e+02   1.51e-03
  3.2727e+02   1.43e-03
  3.3972e+02   1.35e-03
  3.5264e+02   1.28e-03
  3.6606e+02   1.21e-03
  3.7998e+02   1.14e-03
  3.9444e+02   1.08e-03
  4.0945e+02   1.02e-03
  4.2502e+02   9.64e-04
  4.4119e+02   9.11e-04
  4.5798e+02   8.60e-04
  4.7540e+02   8.11e-04
  4.9348e+02   7.65e-04
  5.1226e+02   7.22e-04
  5.3175e+02   6.81e-04
  5.5198e+02   6.41e-04
  5.7297e+02   6.05e-04
  5.9477e+02   5.70e-04
  6.1740e+02   5.37e-04
  6.4089e+02   5.06e-04
  6.6527e+02   4.76e-04
  6.9058e+02   4.48e-04
  7.1685e+02   4.22e-04
  7.4412e+02   3.97e-04
  7.7243e+02   3.74e-04
  8.0181e+02   3.52e-04
  8.3232e+02   3.31e-04
  8.6398e+02   3.11e-04
  8.9685e+02   2.93e-04
  9.3097e+02   2.76e-04
  9.6638e+02   2.60e-04
  1.0031e+03   2.44e-04
  1.0413e+03   2.30e-04
  1.0809e+03   2.16e-04
  1.1220e+03   2.03e-04
  1.1647e+03   1.91e-04
  1.2090e+03   1.80e-04
  1.2550e+03   1.69e-04
  1.3028e+03   1.59e-04
  1.3523e+03   1.50e-04
  1.4038e+03   1.41e-04
  1.4572e+03   1.33e-04
  1.5126e+03   1.25e-04
  1.5702e+03   1.18e-04
  1.6299e+03   1.11e-04
  1.6919e+03   1.05e-04
  1.7563e+03   9.85e-05
  1.8231e+03   9.28e-05
  1.8925e+03   8.75e-05
  1.9645e+03   8.24e-05
  2.0392e+03   7.78e-05
  2.1168e+03   7.33e-05
  2.1973e+03   6.91e-05
  2.2809e+03   6.52e-05
  2.3677e+03   6.16e-05
  2.4577e+03   5.81e-05
  2.5512e+03   5.48e-05
  2.6483e+03   5.18e-05
  2.7490e+03   4.89e-05
  2.8536e+03   4.62e-05
  2.9622e+03   4.37e-05
  3.0749e+03   4.13e-05
  3.1918e+03   3.90e-05
  3.3133e+03   3.69e-05
  3.4393e+03   3.49e-05
  3.5702e+03   3.30e-05
  3.7060e+03   3.13e-05
  3.8470e+03   2.96e-05
  3.9933e+03   2.80e-05
  4.1452e+03   2.65e-05
  4.3029e+03   2.51e-05
  4.4666e+03   2.38e-05
  4.6366e+03   2.26e-05
  4.8129e+03   2.14e-05
  4.9960e+03   2.03e-05
  5.1861e+03   1.92e-05
  5.3834e+03   1.82e-05
  5.5882e+03   1.73e-05
  5.8008e+03   1.64e-05
  6.0215e+03   1.55e-05
  6.2506e+03   1.47e-05
  6.4883e+03   1.40e-05
  6.7352e+03   1.32e-05
  6.9914e+03   1.25e-05
  7.2574e+03   1.19e-05
  7.5335e+03   1.13e-05
  7.8201e+03   1.07e-05
  8.1176e+03   1.01e-05
  8.4264e+03   9.57e-06
  8.7470e+03   9.05e-06
  9.0797e+03   8.55e-06
  9.4251e+03   8.08e-06
  9.7837e+03   7.63e-06
  1.0156e+04   7.19e-06
  1.0542e+04   6.78e-06
  1.0943e+04   6.39e-06
  1.1360e+04   6.00e-06
  1.1792e+04   5.64e-06
  1.2240e+04   5.29e-06
  1.2706e+04   4.95e-06
  1.3189e+04   4.62e-06
  1.3691e+04   4.31e-06
  1.4212e+04   4.01e-06
  1.4753e+04   3.72e-06
  1.5314e+04   3.44e-06
  1.5897e+04   3.17e-06
  1.6501e+04   2.91e-06
  1.7129e+04   2.66e-06
  1.7781e+04   2.43e-06
  1.8457e+04   2.20e-06
  1.9159e+04   1.98e-06
  1.9888e+04   1.77e-06
  2.0645e+04   1.57e-06
  2.1430e+04   1.38e-06
  2.2245e+04   1.20e-06
  2.3092e+04   1.03e-06
  2.3970e+04   8.74e-07
  2.4882e+04   7.30e-07
  2.5829e+04   5.97e-07
  2.6811e+04   4.79e-07
  2.7831e+04   3.73e-07
  2.8890e+04   2.83e-07
  2.9989e+04   2.06e-07
  3.1130e+04   1.44e-07
  3.2314e+04   9.50e-08
  3.3544e+04   5.88e-08
  3.4820e+04   3.37e-08
  3.6144e+04   1.75e-08
  3.7519e+04   8.07e-09
  3.8947e+04   3.21e-09
  4.0428e+04   1.06e-09
  4.1966e+04   2.77e-10
  4.3563e+04   5.38e-11
  4.5220e+04   7.17e-12
  4.6941e+04   5.87e-13
  4.8726e+04   2.55e-14
  5.0580e+04   4.85e-16
