#  E [MeV]   Flux [# cm^{-2} s^{-1}  MeV^{-1}]
  3.0000e+04   7.16e-24
  3.0872e+04   6.89e-24
  3.1770e+04   6.64e-24
  3.2694e+04   6.39e-24
  3.3644e+04   6.15e-24
  3.4623e+04   5.92e-24
  3.5629e+04   5.70e-24
  3.6665e+04   5.49e-24
  3.7731e+04   5.28e-24
  3.8829e+04   5.08e-24
  3.9958e+04   4.89e-24
  4.1119e+04   4.71e-24
  4.2315e+04   4.53e-24
  4.3545e+04   4.36e-24
  4.4812e+04   4.19e-24
  4.6115e+04   4.03e-24
  4.7456e+04   3.87e-24
  4.8835e+04   3.73e-24
  5.0255e+04   3.58e-24
  5.1717e+04   3.44e-24
  5.3220e+04   3.31e-24
  5.4768e+04   3.18e-24
  5.6360e+04   3.06e-24
  5.7999e+04   2.94e-24
  5.9686e+04   2.82e-24
  6.1421e+04   2.71e-24
  6.3207e+04   2.60e-24
  6.5045e+04   2.50e-24
  6.6936e+04   2.40e-24
  6.8882e+04   2.30e-24
  7.0885e+04   2.21e-24
  7.2947e+04   2.12e-24
  7.5068e+04   2.03e-24
  7.7250e+04   1.95e-24
  7.9496e+04   1.87e-24
  8.1808e+04   1.79e-24
  8.4187e+04   1.72e-24
  8.6635e+04   1.64e-24
  8.9154e+04   1.57e-24
  9.1746e+04   1.51e-24
  9.4414e+04   1.44e-24
  9.7159e+04   1.38e-24
  9.9984e+04   1.32e-24
  1.0289e+05   1.26e-24
  1.0588e+05   1.20e-24
  1.0896e+05   1.15e-24
  1.1213e+05   1.10e-24
  1.1539e+05   1.05e-24
  1.1875e+05   9.98e-25
  1.2220e+05   9.51e-25
  1.2575e+05   9.06e-25
  1.2941e+05   8.64e-25
  1.3317e+05   8.22e-25
  1.3704e+05   7.83e-25
  1.4103e+05   7.46e-25
  1.4513e+05   7.10e-25
  1.4935e+05   6.76e-25
  1.5369e+05   6.43e-25
  1.5816e+05   6.12e-25
  1.6276e+05   5.82e-25
  1.6749e+05   5.53e-25
  1.7236e+05   5.26e-25
  1.7737e+05   5.00e-25
  1.8253e+05   4.75e-25
  1.8784e+05   4.51e-25
  1.9330e+05   4.28e-25
  1.9892e+05   4.07e-25
  2.0470e+05   3.86e-25
  2.1066e+05   3.66e-25
  2.1678e+05   3.47e-25
  2.2309e+05   3.28e-25
  2.2957e+05   3.11e-25
  2.3625e+05   2.94e-25
  2.4312e+05   2.78e-25
  2.5019e+05   2.63e-25
  2.5746e+05   2.48e-25
  2.6495e+05   2.34e-25
  2.7265e+05   2.21e-25
  2.8058e+05   2.09e-25
  2.8874e+05   1.97e-25
  2.9713e+05   1.85e-25
  3.0577e+05   1.74e-25
  3.1466e+05   1.64e-25
  3.2381e+05   1.54e-25
  3.3323e+05   1.45e-25
  3.4292e+05   1.36e-25
  3.5289e+05   1.28e-25
  3.6315e+05   1.20e-25
  3.7371e+05   1.12e-25
  3.8457e+05   1.05e-25
  3.9576e+05   9.82e-26
  4.0726e+05   9.18e-26
  4.1911e+05   8.57e-26
  4.3129e+05   7.99e-26
  4.4383e+05   7.46e-26
  4.5674e+05   6.95e-26
  4.7002e+05   6.47e-26
  4.8368e+05   6.01e-26
  4.9775e+05   5.59e-26
  5.1222e+05   5.19e-26
  5.2712e+05   4.81e-26
  5.4244e+05   4.46e-26
  5.5821e+05   4.13e-26
  5.7445e+05   3.83e-26
  5.9115e+05   3.54e-26
  6.0834e+05   3.26e-26
  6.2603e+05   3.02e-26
  6.4423e+05   2.78e-26
  6.6296e+05   2.56e-26
  6.8224e+05   2.36e-26
  7.0208e+05   2.17e-26
  7.2249e+05   2.00e-26
  7.4350e+05   1.83e-26
  7.6512e+05   1.68e-26
  7.8736e+05   1.54e-26
  8.1026e+05   1.41e-26
  8.3382e+05   1.29e-26
  8.5806e+05   1.18e-26
  8.8301e+05   1.08e-26
  9.0869e+05   9.84e-27
  9.3511e+05   8.96e-27
  9.6230e+05   8.13e-27
  9.9028e+05   7.42e-27
  1.0191e+06   6.75e-27
  1.0487e+06   6.12e-27
  1.0792e+06   5.53e-27
  1.1106e+06   5.03e-27
  1.1429e+06   4.57e-27
  1.1761e+06   4.13e-27
  1.2103e+06   3.72e-27
  1.2455e+06   3.37e-27
  1.2817e+06   3.05e-27
  1.3190e+06   2.74e-27
  1.3573e+06   2.46e-27
  1.3968e+06   2.22e-27
  1.4374e+06   2.00e-27
  1.4792e+06   1.80e-27
  1.5222e+06   1.60e-27
  1.5665e+06   1.44e-27
  1.6120e+06   1.30e-27
  1.6589e+06   1.16e-27
  1.7071e+06   1.03e-27
  1.7568e+06   9.24e-28
  1.8079e+06   8.27e-28
  1.8604e+06   7.36e-28
  1.9145e+06   6.50e-28
  1.9702e+06   5.80e-28
  2.0275e+06   5.18e-28
  2.0864e+06   4.59e-28
  2.1471e+06   4.04e-28
  2.2095e+06   3.59e-28
  2.2738e+06   3.19e-28
  2.3399e+06   2.82e-28
  2.4079e+06   2.47e-28
  2.4779e+06   2.19e-28
  2.5500e+06   1.94e-28
  2.6241e+06   1.71e-28
  2.7004e+06   1.48e-28
  2.7790e+06   1.31e-28
  2.8598e+06   1.16e-28
  2.9429e+06   1.01e-28
  3.0285e+06   8.79e-29
  3.1165e+06   7.73e-29
  3.2072e+06   6.82e-29
  3.3004e+06   5.96e-29
  3.3964e+06   5.15e-29
  3.4951e+06   4.52e-29
  3.5968e+06   3.98e-29
  3.7013e+06   3.47e-29
  3.8090e+06   2.99e-29
  3.9197e+06   2.62e-29
  4.0337e+06   2.31e-29
  4.1510e+06   2.01e-29
  4.2717e+06   1.74e-29
  4.3959e+06   1.52e-29
  4.5237e+06   1.35e-29
  4.6552e+06   1.18e-29
  4.7906e+06   1.03e-29
  4.9299e+06   9.04e-30
  5.0732e+06   8.04e-30
  5.2208e+06   7.09e-30
  5.3726e+06   6.21e-30
  5.5288e+06   5.52e-30
  5.6895e+06   4.96e-30
  5.8550e+06   4.44e-30
  6.0252e+06   3.94e-30
  6.2004e+06   3.54e-30
  6.3807e+06   3.20e-30
  6.5662e+06   2.89e-30
  6.7572e+06   2.59e-30
  6.9536e+06   2.33e-30
  7.1558e+06   2.10e-30
  7.3639e+06   1.88e-30
  7.5780e+06   1.68e-30
  7.7984e+06   1.49e-30
  8.0251e+06   1.32e-30
  8.2585e+06   1.17e-30
  8.4986e+06   1.02e-30
  8.7457e+06   9.04e-31
  9.0000e+06   8.05e-31
