#  E [MeV]   Flux [# cm^{-2} s^{-1}  MeV^{-1}]
  3.0000e+04   3.76e-23
  3.0782e+04   3.64e-23
  3.1585e+04   3.51e-23
  3.2409e+04   3.40e-23
  3.3255e+04   3.28e-23
  3.4122e+04   3.17e-23
  3.5012e+04   3.06e-23
  3.5925e+04   2.96e-23
  3.6862e+04   2.85e-23
  3.7824e+04   2.75e-23
  3.8810e+04   2.66e-23
  3.9822e+04   2.56e-23
  4.0861e+04   2.47e-23
  4.1927e+04   2.38e-23
  4.3021e+04   2.29e-23
  4.4143e+04   2.21e-23
  4.5294e+04   2.13e-23
  4.6475e+04   2.05e-23
  4.7688e+04   1.97e-23
  4.8931e+04   1.90e-23
  5.0208e+04   1.83e-23
  5.1517e+04   1.76e-23
  5.2861e+04   1.69e-23
  5.4240e+04   1.62e-23
  5.5654e+04   1.56e-23
  5.7106e+04   1.50e-23
  5.8596e+04   1.44e-23
  6.0124e+04   1.38e-23
  6.1692e+04   1.32e-23
  6.3301e+04   1.27e-23
  6.4952e+04   1.22e-23
  6.6647e+04   1.17e-23
  6.8385e+04   1.12e-23
  7.0169e+04   1.07e-23
  7.1999e+04   1.03e-23
  7.3877e+04   9.84e-24
  7.5804e+04   9.42e-24
  7.7781e+04   9.02e-24
  7.9810e+04   8.63e-24
  8.1891e+04   8.26e-24
  8.4027e+04   7.90e-24
  8.6219e+04   7.56e-24
  8.8468e+04   7.23e-24
  9.0775e+04   6.91e-24
  9.3143e+04   6.60e-24
  9.5572e+04   6.30e-24
  9.8065e+04   6.02e-24
  1.0062e+05   5.75e-24
  1.0325e+05   5.48e-24
  1.0594e+05   5.23e-24
  1.0870e+05   4.99e-24
  1.1154e+05   4.76e-24
  1.1445e+05   4.53e-24
  1.1743e+05   4.32e-24
  1.2050e+05   4.11e-24
  1.2364e+05   3.91e-24
  1.2686e+05   3.72e-24
  1.3017e+05   3.54e-24
  1.3357e+05   3.36e-24
  1.3705e+05   3.19e-24
  1.4063e+05   3.03e-24
  1.4429e+05   2.88e-24
  1.4806e+05   2.73e-24
  1.5192e+05   2.59e-24
  1.5588e+05   2.46e-24
  1.5995e+05   2.33e-24
  1.6412e+05   2.21e-24
  1.6840e+05   2.09e-24
  1.7279e+05   1.98e-24
  1.7730e+05   1.87e-24
  1.8193e+05   1.77e-24
  1.8667e+05   1.67e-24
  1.9154e+05   1.58e-24
  1.9654e+05   1.49e-24
  2.0166e+05   1.40e-24
  2.0692e+05   1.32e-24
  2.1232e+05   1.25e-24
  2.1786e+05   1.18e-24
  2.2354e+05   1.11e-24
  2.2937e+05   1.04e-24
  2.3535e+05   9.79e-25
  2.4149e+05   9.20e-25
  2.4779e+05   8.64e-25
  2.5425e+05   8.11e-25
  2.6088e+05   7.59e-25
  2.6769e+05   7.11e-25
  2.7467e+05   6.66e-25
  2.8184e+05   6.24e-25
  2.8919e+05   5.83e-25
  2.9673e+05   5.44e-25
  3.0447e+05   5.09e-25
  3.1241e+05   4.75e-25
  3.2056e+05   4.43e-25
  3.2892e+05   4.12e-25
  3.3750e+05   3.84e-25
  3.4630e+05   3.57e-25
  3.5533e+05   3.33e-25
  3.6460e+05   3.09e-25
  3.7411e+05   2.86e-25
  3.8387e+05   2.66e-25
  3.9388e+05   2.47e-25
  4.0416e+05   2.28e-25
  4.1470e+05   2.11e-25
  4.2551e+05   1.95e-25
  4.3661e+05   1.81e-25
  4.4800e+05   1.67e-25
  4.5969e+05   1.54e-25
  4.7168e+05   1.42e-25
  4.8398e+05   1.31e-25
  4.9660e+05   1.20e-25
  5.0956e+05   1.11e-25
  5.2285e+05   1.01e-25
  5.3648e+05   9.30e-26
  5.5048e+05   8.56e-26
  5.6483e+05   7.85e-26
  5.7957e+05   7.19e-26
  5.9468e+05   6.56e-26
  6.1020e+05   6.01e-26
  6.2611e+05   5.51e-26
  6.4244e+05   5.03e-26
  6.5920e+05   4.58e-26
  6.7639e+05   4.18e-26
  6.9403e+05   3.82e-26
  7.1214e+05   3.49e-26
  7.3071e+05   3.17e-26
  7.4977e+05   2.87e-26
  7.6933e+05   2.62e-26
  7.8939e+05   2.39e-26
  8.0998e+05   2.17e-26
  8.3111e+05   1.97e-26
  8.5279e+05   1.79e-26
  8.7503e+05   1.63e-26
  8.9785e+05   1.48e-26
  9.2127e+05   1.34e-26
  9.4530e+05   1.21e-26
  9.6996e+05   1.10e-26
  9.9526e+05   9.97e-27
  1.0212e+06   9.01e-27
  1.0479e+06   8.12e-27
  1.0752e+06   7.34e-27
  1.1032e+06   6.67e-27
  1.1320e+06   6.04e-27
  1.1615e+06   5.44e-27
  1.1918e+06   4.88e-27
  1.2229e+06   4.44e-27
  1.2548e+06   4.03e-27
  1.2875e+06   3.63e-27
  1.3211e+06   3.26e-27
  1.3556e+06   2.95e-27
  1.3909e+06   2.67e-27
  1.4272e+06   2.42e-27
  1.4644e+06   2.17e-27
  1.5026e+06   1.95e-27
  1.5418e+06   1.77e-27
  1.5820e+06   1.60e-27
  1.6233e+06   1.45e-27
  1.6657e+06   1.30e-27
  1.7091e+06   1.17e-27
  1.7537e+06   1.06e-27
  1.7994e+06   9.60e-28
  1.8464e+06   8.63e-28
  1.8945e+06   7.74e-28
  1.9439e+06   7.04e-28
  1.9946e+06   6.38e-28
  2.0467e+06   5.75e-28
  2.1000e+06   5.16e-28
  2.1548e+06   4.67e-28
  2.2110e+06   4.23e-28
  2.2687e+06   3.82e-28
  2.3279e+06   3.43e-28
  2.3886e+06   3.07e-28
  2.4509e+06   2.80e-28
  2.5148e+06   2.54e-28
  2.5804e+06   2.29e-28
  2.6477e+06   2.06e-28
  2.7168e+06   1.87e-28
  2.7876e+06   1.71e-28
  2.8603e+06   1.55e-28
  2.9349e+06   1.41e-28
  3.0115e+06   1.28e-28
  3.0900e+06   1.19e-28
  3.1706e+06   1.10e-28
  3.2533e+06   1.01e-28
  3.3382e+06   9.30e-29
  3.4253e+06   8.69e-29
  3.5146e+06   8.15e-29
  3.6063e+06   7.64e-29
  3.7003e+06   7.15e-29
  3.7969e+06   6.72e-29
  3.8959e+06   6.40e-29
  3.9975e+06   6.09e-29
  4.1018e+06   5.79e-29
  4.2088e+06   5.50e-29
  4.3185e+06   5.28e-29
  4.4312e+06   5.07e-29
  4.5467e+06   4.87e-29
  4.6653e+06   4.68e-29
  4.7870e+06   4.49e-29
  4.9119e+06   4.31e-29
  5.0400e+06   4.14e-29
