#  E [GeV]   # per interaction  [GeV^{-1}]
  3.0000e+01   1.25e-02
  3.0675e+01   1.23e-02
  3.1366e+01   1.21e-02
  3.2072e+01   1.19e-02
  3.2794e+01   1.17e-02
  3.3533e+01   1.15e-02
  3.4288e+01   1.14e-02
  3.5060e+01   1.12e-02
  3.5849e+01   1.10e-02
  3.6656e+01   1.08e-02
  3.7482e+01   1.07e-02
  3.8326e+01   1.05e-02
  3.9188e+01   1.03e-02
  4.0071e+01   1.02e-02
  4.0973e+01   1.00e-02
  4.1896e+01   9.87e-03
  4.2839e+01   9.72e-03
  4.3803e+01   9.58e-03
  4.4790e+01   9.44e-03
  4.5798e+01   9.29e-03
  4.6829e+01   9.16e-03
  4.7884e+01   9.03e-03
  4.8962e+01   8.90e-03
  5.0064e+01   8.77e-03
  5.1191e+01   8.64e-03
  5.2344e+01   8.52e-03
  5.3522e+01   8.40e-03
  5.4727e+01   8.28e-03
  5.5960e+01   8.16e-03
  5.7219e+01   8.04e-03
  5.8508e+01   7.93e-03
  5.9825e+01   7.82e-03
  6.1172e+01   7.71e-03
  6.2549e+01   7.60e-03
  6.3958e+01   7.49e-03
  6.5398e+01   7.38e-03
  6.6870e+01   7.28e-03
  6.8376e+01   7.18e-03
  6.9915e+01   7.07e-03
  7.1489e+01   6.97e-03
  7.3099e+01   6.88e-03
  7.4745e+01   6.78e-03
  7.6428e+01   6.68e-03
  7.8148e+01   6.59e-03
  7.9908e+01   6.49e-03
  8.1707e+01   6.40e-03
  8.3547e+01   6.31e-03
  8.5428e+01   6.22e-03
  8.7351e+01   6.13e-03
  8.9318e+01   6.04e-03
  9.1329e+01   5.95e-03
  9.3385e+01   5.87e-03
  9.5488e+01   5.78e-03
  9.7638e+01   5.70e-03
  9.9836e+01   5.61e-03
  1.0208e+02   5.53e-03
  1.0438e+02   5.44e-03
  1.0673e+02   5.36e-03
  1.0914e+02   5.28e-03
  1.1159e+02   5.20e-03
  1.1411e+02   5.12e-03
  1.1667e+02   5.04e-03
  1.1930e+02   4.96e-03
  1.2199e+02   4.88e-03
  1.2473e+02   4.80e-03
  1.2754e+02   4.72e-03
  1.3041e+02   4.64e-03
  1.3335e+02   4.57e-03
  1.3635e+02   4.49e-03
  1.3942e+02   4.41e-03
  1.4256e+02   4.34e-03
  1.4577e+02   4.26e-03
  1.4905e+02   4.18e-03
  1.5241e+02   4.11e-03
  1.5584e+02   4.03e-03
  1.5935e+02   3.96e-03
  1.6294e+02   3.88e-03
  1.6661e+02   3.81e-03
  1.7036e+02   3.74e-03
  1.7419e+02   3.66e-03
  1.7812e+02   3.59e-03
  1.8213e+02   3.52e-03
  1.8623e+02   3.45e-03
  1.9042e+02   3.38e-03
  1.9471e+02   3.30e-03
  1.9909e+02   3.23e-03
  2.0357e+02   3.17e-03
  2.0816e+02   3.10e-03
  2.1284e+02   3.03e-03
  2.1763e+02   2.96e-03
  2.2253e+02   2.89e-03
  2.2755e+02   2.82e-03
  2.3267e+02   2.75e-03
  2.3791e+02   2.69e-03
  2.4326e+02   2.62e-03
  2.4874e+02   2.55e-03
  2.5434e+02   2.49e-03
  2.6007e+02   2.42e-03
  2.6592e+02   2.35e-03
  2.7191e+02   2.29e-03
  2.7803e+02   2.23e-03
  2.8429e+02   2.16e-03
  2.9069e+02   2.10e-03
  2.9724e+02   2.04e-03
  3.0393e+02   1.98e-03
  3.1077e+02   1.91e-03
  3.1777e+02   1.86e-03
  3.2493e+02   1.80e-03
  3.3224e+02   1.74e-03
  3.3972e+02   1.68e-03
  3.4737e+02   1.62e-03
  3.5519e+02   1.57e-03
  3.6319e+02   1.51e-03
  3.7137e+02   1.46e-03
  3.7973e+02   1.41e-03
  3.8828e+02   1.35e-03
  3.9702e+02   1.30e-03
  4.0596e+02   1.26e-03
  4.1510e+02   1.21e-03
  4.2444e+02   1.16e-03
  4.3400e+02   1.11e-03
  4.4377e+02   1.07e-03
  4.5376e+02   1.02e-03
  4.6398e+02   9.79e-04
  4.7443e+02   9.35e-04
  4.8511e+02   8.94e-04
  4.9603e+02   8.54e-04
  5.0720e+02   8.15e-04
  5.1862e+02   7.77e-04
  5.3030e+02   7.40e-04
  5.4224e+02   7.05e-04
  5.5444e+02   6.71e-04
  5.6693e+02   6.38e-04
  5.7969e+02   6.06e-04
  5.9274e+02   5.75e-04
  6.0609e+02   5.45e-04
  6.1974e+02   5.17e-04
  6.3369e+02   4.90e-04
  6.4796e+02   4.64e-04
  6.6255e+02   4.38e-04
  6.7746e+02   4.14e-04
  6.9272e+02   3.91e-04
  7.0831e+02   3.69e-04
  7.2426e+02   3.48e-04
  7.4057e+02   3.27e-04
  7.5724e+02   3.08e-04
  7.7429e+02   2.89e-04
  7.9172e+02   2.72e-04
  8.0955e+02   2.56e-04
  8.2778e+02   2.40e-04
  8.4641e+02   2.25e-04
  8.6547e+02   2.10e-04
  8.8496e+02   1.97e-04
  9.0488e+02   1.84e-04
  9.2526e+02   1.72e-04
  9.4609e+02   1.60e-04
  9.6739e+02   1.49e-04
  9.8917e+02   1.39e-04
  1.0114e+03   1.29e-04
  1.0342e+03   1.20e-04
  1.0575e+03   1.11e-04
  1.0813e+03   1.03e-04
  1.1057e+03   9.54e-05
  1.1305e+03   8.82e-05
  1.1560e+03   8.15e-05
  1.1820e+03   7.52e-05
  1.2086e+03   6.93e-05
  1.2359e+03   6.38e-05
  1.2637e+03   5.86e-05
  1.2921e+03   5.37e-05
  1.3212e+03   4.94e-05
  1.3510e+03   4.54e-05
  1.3814e+03   4.15e-05
  1.4125e+03   3.79e-05
  1.4443e+03   3.45e-05
  1.4768e+03   3.15e-05
  1.5101e+03   2.87e-05
  1.5441e+03   2.61e-05
  1.5788e+03   2.36e-05
  1.6144e+03   2.12e-05
  1.6507e+03   1.92e-05
  1.6879e+03   1.74e-05
  1.7259e+03   1.57e-05
  1.7648e+03   1.41e-05
  1.8045e+03   1.26e-05
  1.8451e+03   1.13e-05
  1.8867e+03   1.02e-05
  1.9291e+03   9.22e-06
  1.9726e+03   8.25e-06
  2.0170e+03   7.32e-06
  2.0624e+03   6.57e-06
  2.1088e+03   5.99e-06
  2.1563e+03   5.43e-06
  2.2049e+03   4.90e-06
  2.2545e+03   4.40e-06
  2.3053e+03   3.99e-06
  2.3572e+03   3.73e-06
  2.4102e+03   3.49e-06
  2.4645e+03   3.26e-06
  2.5200e+03   3.04e-06
