#  E [GeV]   # per interaction  [GeV^{-1}]
  3.0000e+01   6.49e-01
  3.1123e+01   6.24e-01
  3.2288e+01   6.00e-01
  3.3497e+01   5.77e-01
  3.4751e+01   5.55e-01
  3.6051e+01   5.34e-01
  3.7401e+01   5.13e-01
  3.8801e+01   4.93e-01
  4.0253e+01   4.74e-01
  4.1760e+01   4.56e-01
  4.3324e+01   4.38e-01
  4.4945e+01   4.21e-01
  4.6628e+01   4.04e-01
  4.8373e+01   3.89e-01
  5.0184e+01   3.73e-01
  5.2063e+01   3.59e-01
  5.4011e+01   3.45e-01
  5.6033e+01   3.31e-01
  5.8131e+01   3.18e-01
  6.0307e+01   3.05e-01
  6.2564e+01   2.93e-01
  6.4906e+01   2.81e-01
  6.7336e+01   2.70e-01
  6.9857e+01   2.59e-01
  7.2472e+01   2.49e-01
  7.5184e+01   2.38e-01
  7.7999e+01   2.29e-01
  8.0919e+01   2.19e-01
  8.3948e+01   2.10e-01
  8.7090e+01   2.02e-01
  9.0350e+01   1.93e-01
  9.3732e+01   1.85e-01
  9.7241e+01   1.77e-01
  1.0088e+02   1.70e-01
  1.0466e+02   1.63e-01
  1.0858e+02   1.56e-01
  1.1264e+02   1.49e-01
  1.1686e+02   1.43e-01
  1.2123e+02   1.36e-01
  1.2577e+02   1.31e-01
  1.3048e+02   1.25e-01
  1.3536e+02   1.19e-01
  1.4043e+02   1.14e-01
  1.4568e+02   1.09e-01
  1.5114e+02   1.04e-01
  1.5680e+02   9.91e-02
  1.6266e+02   9.45e-02
  1.6875e+02   9.02e-02
  1.7507e+02   8.59e-02
  1.8162e+02   8.19e-02
  1.8842e+02   7.80e-02
  1.9548e+02   7.42e-02
  2.0279e+02   7.06e-02
  2.1039e+02   6.72e-02
  2.1826e+02   6.39e-02
  2.2643e+02   6.07e-02
  2.3491e+02   5.76e-02
  2.4370e+02   5.47e-02
  2.5282e+02   5.19e-02
  2.6229e+02   4.92e-02
  2.7211e+02   4.66e-02
  2.8229e+02   4.41e-02
  2.9286e+02   4.17e-02
  3.0382e+02   3.94e-02
  3.1519e+02   3.73e-02
  3.2699e+02   3.52e-02
  3.3923e+02   3.32e-02
  3.5193e+02   3.13e-02
  3.6511e+02   2.95e-02
  3.7877e+02   2.77e-02
  3.9295e+02   2.61e-02
  4.0766e+02   2.45e-02
  4.2292e+02   2.30e-02
  4.3875e+02   2.16e-02
  4.5518e+02   2.03e-02
  4.7222e+02   1.90e-02
  4.8989e+02   1.78e-02
  5.0823e+02   1.67e-02
  5.2726e+02   1.56e-02
  5.4699e+02   1.46e-02
  5.6747e+02   1.36e-02
  5.8871e+02   1.27e-02
  6.1075e+02   1.18e-02
  6.3361e+02   1.10e-02
  6.5733e+02   1.03e-02
  6.8194e+02   9.56e-03
  7.0746e+02   8.89e-03
  7.3395e+02   8.27e-03
  7.6142e+02   7.68e-03
  7.8992e+02   7.14e-03
  8.1949e+02   6.63e-03
  8.5017e+02   6.15e-03
  8.8199e+02   5.70e-03
  9.1501e+02   5.29e-03
  9.4926e+02   4.90e-03
  9.8479e+02   4.54e-03
  1.0217e+03   4.20e-03
  1.0599e+03   3.89e-03
  1.0996e+03   3.60e-03
  1.1407e+03   3.33e-03
  1.1834e+03   3.07e-03
  1.2277e+03   2.84e-03
  1.2737e+03   2.62e-03
  1.3214e+03   2.42e-03
  1.3708e+03   2.23e-03
  1.4222e+03   2.06e-03
  1.4754e+03   1.90e-03
  1.5306e+03   1.74e-03
  1.5879e+03   1.61e-03
  1.6474e+03   1.48e-03
  1.7090e+03   1.36e-03
  1.7730e+03   1.25e-03
  1.8394e+03   1.15e-03
  1.9082e+03   1.05e-03
  1.9797e+03   9.68e-04
  2.0538e+03   8.88e-04
  2.1306e+03   8.14e-04
  2.2104e+03   7.45e-04
  2.2931e+03   6.82e-04
  2.3790e+03   6.23e-04
  2.4680e+03   5.69e-04
  2.5604e+03   5.19e-04
  2.6563e+03   4.73e-04
  2.7557e+03   4.31e-04
  2.8589e+03   3.92e-04
  2.9659e+03   3.57e-04
  3.0769e+03   3.23e-04
  3.1921e+03   2.94e-04
  3.3116e+03   2.66e-04
  3.4355e+03   2.40e-04
  3.5641e+03   2.18e-04
  3.6976e+03   1.97e-04
  3.8360e+03   1.77e-04
  3.9796e+03   1.59e-04
  4.1285e+03   1.43e-04
  4.2831e+03   1.28e-04
  4.4434e+03   1.15e-04
  4.6097e+03   1.03e-04
  4.7823e+03   9.19e-05
  4.9613e+03   8.20e-05
  5.1470e+03   7.31e-05
  5.3397e+03   6.48e-05
  5.5396e+03   5.74e-05
  5.7470e+03   5.09e-05
  5.9621e+03   4.48e-05
  6.1853e+03   3.94e-05
  6.4168e+03   3.48e-05
  6.6570e+03   3.04e-05
  6.9062e+03   2.65e-05
  7.1647e+03   2.32e-05
  7.4329e+03   2.02e-05
  7.7112e+03   1.74e-05
  7.9998e+03   1.52e-05
  8.2993e+03   1.31e-05
  8.6100e+03   1.11e-05
  8.9323e+03   9.58e-06
  9.2666e+03   8.17e-06
  9.6135e+03   6.89e-06
  9.9734e+03   5.84e-06
  1.0347e+04   4.92e-06
  1.0734e+04   4.09e-06
  1.1136e+04   3.41e-06
  1.1553e+04   2.82e-06
  1.1985e+04   2.31e-06
  1.2434e+04   1.88e-06
  1.2899e+04   1.52e-06
  1.3382e+04   1.22e-06
  1.3883e+04   9.64e-07
  1.4403e+04   7.62e-07
  1.4942e+04   5.90e-07
  1.5501e+04   4.51e-07
  1.6081e+04   3.44e-07
  1.6683e+04   2.55e-07
  1.7308e+04   1.85e-07
  1.7956e+04   1.34e-07
  1.8628e+04   9.41e-08
  1.9325e+04   6.36e-08
  2.0049e+04   4.26e-08
  2.0799e+04   2.74e-08
  2.1578e+04   1.67e-08
  2.2386e+04   9.98e-09
  2.3224e+04   5.63e-09
  2.4093e+04   2.96e-09
  2.4995e+04   1.48e-09
  2.5930e+04   6.86e-10
  2.6901e+04   2.86e-10
  2.7908e+04   1.08e-10
  2.8953e+04   3.60e-11
  3.0037e+04   1.02e-11
  3.1161e+04   2.41e-12
  3.2327e+04   4.59e-13
  3.3537e+04   6.59e-14
  3.4793e+04   6.80e-15
  3.6095e+04   4.73e-16
  3.7446e+04   1.97e-17
  3.8848e+04   4.36e-19
  4.0302e+04   4.42e-21
  4.1811e+04   1.65e-23
  4.3376e+04   1.73e-26
  4.5000e+04   3.65e-30
