#  E [MeV]   Flux [# cm^{-2} s^{-1}  MeV^{-1}]
  3.0000e+04   8.87e-27
  3.1141e+04   8.53e-27
  3.2326e+04   8.21e-27
  3.3556e+04   7.89e-27
  3.4832e+04   7.58e-27
  3.6157e+04   7.29e-27
  3.7533e+04   7.01e-27
  3.8961e+04   6.73e-27
  4.0443e+04   6.46e-27
  4.1982e+04   6.20e-27
  4.3579e+04   5.95e-27
  4.5237e+04   5.71e-27
  4.6958e+04   5.48e-27
  4.8744e+04   5.26e-27
  5.0598e+04   5.04e-27
  5.2523e+04   4.83e-27
  5.4521e+04   4.63e-27
  5.6596e+04   4.44e-27
  5.8749e+04   4.25e-27
  6.0984e+04   4.07e-27
  6.3304e+04   3.90e-27
  6.5712e+04   3.74e-27
  6.8212e+04   3.57e-27
  7.0807e+04   3.42e-27
  7.3500e+04   3.27e-27
  7.6297e+04   3.13e-27
  7.9199e+04   2.99e-27
  8.2212e+04   2.86e-27
  8.5340e+04   2.73e-27
  8.8586e+04   2.61e-27
  9.1956e+04   2.49e-27
  9.5455e+04   2.38e-27
  9.9086e+04   2.27e-27
  1.0286e+05   2.16e-27
  1.0677e+05   2.06e-27
  1.1083e+05   1.96e-27
  1.1505e+05   1.87e-27
  1.1942e+05   1.78e-27
  1.2397e+05   1.70e-27
  1.2868e+05   1.62e-27
  1.3358e+05   1.54e-27
  1.3866e+05   1.46e-27
  1.4394e+05   1.39e-27
  1.4941e+05   1.32e-27
  1.5509e+05   1.25e-27
  1.6100e+05   1.19e-27
  1.6712e+05   1.13e-27
  1.7348e+05   1.07e-27
  1.8008e+05   1.02e-27
  1.8693e+05   9.64e-28
  1.9404e+05   9.13e-28
  2.0142e+05   8.64e-28
  2.0908e+05   8.18e-28
  2.1704e+05   7.73e-28
  2.2529e+05   7.31e-28
  2.3387e+05   6.90e-28
  2.4276e+05   6.52e-28
  2.5200e+05   6.15e-28
  2.6158e+05   5.79e-28
  2.7154e+05   5.46e-28
  2.8187e+05   5.14e-28
  2.9259e+05   4.83e-28
  3.0372e+05   4.55e-28
  3.1527e+05   4.27e-28
  3.2727e+05   4.01e-28
  3.3972e+05   3.76e-28
  3.5264e+05   3.53e-28
  3.6606e+05   3.30e-28
  3.7998e+05   3.09e-28
  3.9444e+05   2.89e-28
  4.0945e+05   2.70e-28
  4.2502e+05   2.53e-28
  4.4119e+05   2.36e-28
  4.5798e+05   2.20e-28
  4.7540e+05   2.05e-28
  4.9348e+05   1.91e-28
  5.1226e+05   1.78e-28
  5.3175e+05   1.65e-28
  5.5198e+05   1.54e-28
  5.7297e+05   1.43e-28
  5.9477e+05   1.33e-28
  6.1740e+05   1.23e-28
  6.4089e+05   1.14e-28
  6.6527e+05   1.06e-28
  6.9058e+05   9.83e-29
  7.1685e+05   9.12e-29
  7.4412e+05   8.45e-29
  7.7243e+05   7.83e-29
  8.0181e+05   7.26e-29
  8.3232e+05   6.72e-29
  8.6398e+05   6.23e-29
  8.9685e+05   5.78e-29
  9.3097e+05   5.36e-29
  9.6638e+05   4.97e-29
  1.0031e+06   4.61e-29
  1.0413e+06   4.27e-29
  1.0809e+06   3.97e-29
  1.1220e+06   3.68e-29
  1.1647e+06   3.42e-29
  1.2090e+06   3.18e-29
  1.2550e+06   2.95e-29
  1.3028e+06   2.75e-29
  1.3523e+06   2.56e-29
  1.4038e+06   2.38e-29
  1.4572e+06   2.22e-29
  1.5126e+06   2.07e-29
  1.5702e+06   1.93e-29
  1.6299e+06   1.80e-29
  1.6919e+06   1.68e-29
  1.7563e+06   1.57e-29
  1.8231e+06   1.46e-29
  1.8925e+06   1.37e-29
  1.9645e+06   1.28e-29
  2.0392e+06   1.20e-29
  2.1168e+06   1.12e-29
  2.1973e+06   1.05e-29
  2.2809e+06   9.82e-30
  2.3677e+06   9.19e-30
  2.4577e+06   8.62e-30
  2.5512e+06   8.08e-30
  2.6483e+06   7.57e-30
  2.7490e+06   7.10e-30
  2.8536e+06   6.65e-30
  2.9622e+06   6.24e-30
  3.0749e+06   5.85e-30
  3.1918e+06   5.48e-30
  3.3133e+06   5.14e-30
  3.4393e+06   4.81e-30
  3.5702e+06   4.51e-30
  3.7060e+06   4.22e-30
  3.8470e+06   3.95e-30
  3.9933e+06   3.70e-30
  4.1452e+06   3.45e-30
  4.3029e+06   3.22e-30
  4.4666e+06   3.01e-30
  4.6366e+06   2.81e-30
  4.8129e+06   2.61e-30
  4.9960e+06   2.43e-30
  5.1861e+06   2.26e-30
  5.3834e+06   2.09e-30
  5.5882e+06   1.94e-30
  5.8008e+06   1.79e-30
  6.0215e+06   1.66e-30
  6.2506e+06   1.52e-30
  6.4883e+06   1.40e-30
  6.7352e+06   1.28e-30
  6.9914e+06   1.17e-30
  7.2574e+06   1.07e-30
  7.5335e+06   9.69e-31
  7.8201e+06   8.76e-31
  8.1176e+06   7.89e-31
  8.4264e+06   7.07e-31
  8.7470e+06   6.30e-31
  9.0797e+06   5.59e-31
  9.4251e+06   4.92e-31
  9.7837e+06   4.31e-31
  1.0156e+07   3.75e-31
  1.0542e+07   3.23e-31
  1.0943e+07   2.76e-31
  1.1360e+07   2.34e-31
  1.1792e+07   1.95e-31
  1.2240e+07   1.62e-31
  1.2706e+07   1.32e-31
  1.3189e+07   1.06e-31
  1.3691e+07   8.36e-32
  1.4212e+07   6.49e-32
  1.4753e+07   4.93e-32
  1.5314e+07   3.66e-32
  1.5897e+07   2.65e-32
  1.6501e+07   1.86e-32
  1.7129e+07   1.26e-32
  1.7781e+07   8.25e-33
  1.8457e+07   5.17e-33
  1.9159e+07   3.08e-33
  1.9888e+07   1.74e-33
  2.0645e+07   9.20e-34
  2.1430e+07   4.52e-34
  2.2245e+07   2.04e-34
  2.3092e+07   8.36e-35
  2.3970e+07   3.05e-35
  2.4882e+07   9.74e-36
  2.5829e+07   2.66e-36
  2.6811e+07   6.04e-37
  2.7831e+07   1.10e-37
  2.8890e+07   1.55e-38
  2.9989e+07   1.60e-39
  3.1130e+07   1.14e-40
  3.2314e+07   5.14e-42
  3.3544e+07   1.35e-43
  3.4820e+07   1.82e-45
  3.6144e+07   1.08e-47
  3.7519e+07   2.34e-50
  3.8947e+07   1.43e-53
  4.0428e+07   1.81e-57
  4.1966e+07   3.12e-62
  4.3563e+07   4.27e-68
  4.5220e+07   3.59e-71
  4.6941e+07   3.37e-71
  4.8726e+07   3.19e-71
  5.0580e+07   3.02e-71
