#  E [MeV]   Flux [# cm^{-2} s^{-1}  MeV^{-1}]
  3.0000e+04   8.28e-20
  3.0943e+04   7.95e-20
  3.1916e+04   7.64e-20
  3.2920e+04   7.34e-20
  3.3955e+04   7.04e-20
  3.5023e+04   6.76e-20
  3.6124e+04   6.49e-20
  3.7260e+04   6.23e-20
  3.8432e+04   5.98e-20
  3.9640e+04   5.74e-20
  4.0887e+04   5.50e-20
  4.2172e+04   5.28e-20
  4.3499e+04   5.06e-20
  4.4866e+04   4.85e-20
  4.6277e+04   4.65e-20
  4.7732e+04   4.46e-20
  4.9233e+04   4.27e-20
  5.0781e+04   4.09e-20
  5.2378e+04   3.92e-20
  5.4025e+04   3.75e-20
  5.5724e+04   3.59e-20
  5.7476e+04   3.44e-20
  5.9284e+04   3.29e-20
  6.1148e+04   3.15e-20
  6.3071e+04   3.01e-20
  6.5054e+04   2.88e-20
  6.7100e+04   2.76e-20
  6.9210e+04   2.64e-20
  7.1386e+04   2.52e-20
  7.3631e+04   2.41e-20
  7.5946e+04   2.30e-20
  7.8334e+04   2.20e-20
  8.0797e+04   2.10e-20
  8.3338e+04   2.00e-20
  8.5959e+04   1.91e-20
  8.8662e+04   1.82e-20
  9.1450e+04   1.74e-20
  9.4325e+04   1.66e-20
  9.7291e+04   1.58e-20
  1.0035e+05   1.51e-20
  1.0351e+05   1.43e-20
  1.0676e+05   1.37e-20
  1.1012e+05   1.30e-20
  1.1358e+05   1.24e-20
  1.1715e+05   1.18e-20
  1.2084e+05   1.12e-20
  1.2464e+05   1.06e-20
  1.2856e+05   1.01e-20
  1.3260e+05   9.60e-21
  1.3677e+05   9.12e-21
  1.4107e+05   8.66e-21
  1.4550e+05   8.21e-21
  1.5008e+05   7.79e-21
  1.5480e+05   7.39e-21
  1.5967e+05   7.00e-21
  1.6469e+05   6.63e-21
  1.6987e+05   6.28e-21
  1.7521e+05   5.95e-21
  1.8072e+05   5.63e-21
  1.8640e+05   5.32e-21
  1.9226e+05   5.03e-21
  1.9831e+05   4.75e-21
  2.0454e+05   4.49e-21
  2.1097e+05   4.24e-21
  2.1761e+05   4.00e-21
  2.2445e+05   3.77e-21
  2.3151e+05   3.56e-21
  2.3879e+05   3.35e-21
  2.4630e+05   3.15e-21
  2.5404e+05   2.97e-21
  2.6203e+05   2.79e-21
  2.7027e+05   2.62e-21
  2.7877e+05   2.46e-21
  2.8753e+05   2.31e-21
  2.9657e+05   2.17e-21
  3.0590e+05   2.03e-21
  3.1552e+05   1.90e-21
  3.2544e+05   1.78e-21
  3.3567e+05   1.67e-21
  3.4623e+05   1.56e-21
  3.5712e+05   1.45e-21
  3.6835e+05   1.36e-21
  3.7993e+05   1.26e-21
  3.9188e+05   1.18e-21
  4.0420e+05   1.10e-21
  4.1691e+05   1.02e-21
  4.3002e+05   9.46e-22
  4.4354e+05   8.79e-22
  4.5749e+05   8.15e-22
  4.7187e+05   7.55e-22
  4.8671e+05   6.99e-22
  5.0202e+05   6.48e-22
  5.1780e+05   5.99e-22
  5.3409e+05   5.52e-22
  5.5088e+05   5.10e-22
  5.6820e+05   4.71e-22
  5.8607e+05   4.34e-22
  6.0450e+05   3.99e-22
  6.2351e+05   3.67e-22
  6.4311e+05   3.38e-22
  6.6334e+05   3.10e-22
  6.8419e+05   2.85e-22
  7.0571e+05   2.61e-22
  7.2790e+05   2.39e-22
  7.5079e+05   2.19e-22
  7.7440e+05   2.00e-22
  7.9875e+05   1.83e-22
  8.2387e+05   1.67e-22
  8.4977e+05   1.52e-22
  8.7649e+05   1.39e-22
  9.0405e+05   1.27e-22
  9.3248e+05   1.15e-22
  9.6180e+05   1.05e-22
  9.9205e+05   9.57e-23
  1.0232e+06   8.71e-23
  1.0554e+06   7.90e-23
  1.0886e+06   7.17e-23
  1.1228e+06   6.52e-23
  1.1581e+06   5.91e-23
  1.1946e+06   5.34e-23
  1.2321e+06   4.86e-23
  1.2709e+06   4.40e-23
  1.3108e+06   3.98e-23
  1.3521e+06   3.59e-23
  1.3946e+06   3.25e-23
  1.4384e+06   2.94e-23
  1.4837e+06   2.65e-23
  1.5303e+06   2.38e-23
  1.5784e+06   2.16e-23
  1.6281e+06   1.94e-23
  1.6793e+06   1.74e-23
  1.7321e+06   1.57e-23
  1.7865e+06   1.41e-23
  1.8427e+06   1.27e-23
  1.9006e+06   1.13e-23
  1.9604e+06   1.02e-23
  2.0221e+06   9.18e-24
  2.0856e+06   8.20e-24
  2.1512e+06   7.32e-24
  2.2189e+06   6.58e-24
  2.2886e+06   5.89e-24
  2.3606e+06   5.23e-24
  2.4348e+06   4.67e-24
  2.5114e+06   4.19e-24
  2.5904e+06   3.73e-24
  2.6718e+06   3.30e-24
  2.7558e+06   2.95e-24
  2.8425e+06   2.63e-24
  2.9319e+06   2.32e-24
  3.0241e+06   2.05e-24
  3.1192e+06   1.83e-24
  3.2173e+06   1.62e-24
  3.3184e+06   1.43e-24
  3.4228e+06   1.26e-24
  3.5304e+06   1.12e-24
  3.6414e+06   9.92e-25
  3.7559e+06   8.69e-25
  3.8740e+06   7.69e-25
  3.9958e+06   6.82e-25
  4.1215e+06   6.00e-25
  4.2511e+06   5.23e-25
  4.3848e+06   4.66e-25
  4.5227e+06   4.11e-25
  4.6649e+06   3.61e-25
  4.8116e+06   3.16e-25
  4.9629e+06   2.81e-25
  5.1189e+06   2.47e-25
  5.2799e+06   2.16e-25
  5.4459e+06   1.91e-25
  5.6171e+06   1.70e-25
  5.7938e+06   1.50e-25
  5.9760e+06   1.31e-25
  6.1639e+06   1.17e-25
  6.3577e+06   1.04e-25
  6.5576e+06   9.18e-26
  6.7638e+06   8.08e-26
  6.9765e+06   7.21e-26
  7.1959e+06   6.40e-26
  7.4222e+06   5.66e-26
  7.6556e+06   5.00e-26
  7.8963e+06   4.44e-26
  8.1446e+06   3.93e-26
  8.4007e+06   3.46e-26
  8.6649e+06   3.06e-26
  8.9373e+06   2.70e-26
  9.2184e+06   2.38e-26
  9.5082e+06   2.08e-26
  9.8072e+06   1.82e-26
  1.0116e+07   1.59e-26
  1.0434e+07   1.38e-26
  1.0762e+07   1.19e-26
  1.1100e+07   1.02e-26
  1.1449e+07   8.72e-27
  1.1809e+07   7.37e-27
  1.2181e+07   6.16e-27
  1.2564e+07   5.10e-27
  1.2959e+07   4.17e-27
  1.3366e+07   3.37e-27
  1.3786e+07   2.75e-27
  1.4220e+07   2.23e-27
