#  E [MeV]   Flux [# cm^{-2} s^{-1}  MeV^{-1}]
  3.0000e+04   1.19e-18
  3.0501e+04   1.16e-18
  3.1010e+04   1.12e-18
  3.1528e+04   1.08e-18
  3.2055e+04   1.05e-18
  3.2590e+04   1.02e-18
  3.3134e+04   9.82e-19
  3.3688e+04   9.50e-19
  3.4250e+04   9.19e-19
  3.4822e+04   8.89e-19
  3.5404e+04   8.60e-19
  3.5995e+04   8.31e-19
  3.6596e+04   8.04e-19
  3.7207e+04   7.77e-19
  3.7829e+04   7.50e-19
  3.8460e+04   7.25e-19
  3.9103e+04   7.00e-19
  3.9756e+04   6.76e-19
  4.0420e+04   6.52e-19
  4.1095e+04   6.30e-19
  4.1781e+04   6.07e-19
  4.2479e+04   5.86e-19
  4.3188e+04   5.65e-19
  4.3909e+04   5.44e-19
  4.4642e+04   5.25e-19
  4.5388e+04   5.06e-19
  4.6146e+04   4.88e-19
  4.6917e+04   4.70e-19
  4.7700e+04   4.52e-19
  4.8497e+04   4.35e-19
  4.9307e+04   4.19e-19
  5.0130e+04   4.03e-19
  5.0967e+04   3.88e-19
  5.1818e+04   3.74e-19
  5.2684e+04   3.59e-19
  5.3563e+04   3.45e-19
  5.4458e+04   3.32e-19
  5.5367e+04   3.19e-19
  5.6292e+04   3.06e-19
  5.7232e+04   2.94e-19
  5.8188e+04   2.83e-19
  5.9160e+04   2.71e-19
  6.0148e+04   2.60e-19
  6.1152e+04   2.50e-19
  6.2173e+04   2.39e-19
  6.3212e+04   2.30e-19
  6.4267e+04   2.20e-19
  6.5340e+04   2.11e-19
  6.6432e+04   2.02e-19
  6.7541e+04   1.94e-19
  6.8669e+04   1.85e-19
  6.9816e+04   1.77e-19
  7.0982e+04   1.70e-19
  7.2167e+04   1.63e-19
  7.3372e+04   1.56e-19
  7.4598e+04   1.49e-19
  7.5843e+04   1.42e-19
  7.7110e+04   1.36e-19
  7.8398e+04   1.29e-19
  7.9707e+04   1.24e-19
  8.1038e+04   1.18e-19
  8.2391e+04   1.13e-19
  8.3767e+04   1.07e-19
  8.5166e+04   1.02e-19
  8.6588e+04   9.74e-20
  8.8034e+04   9.27e-20
  8.9505e+04   8.84e-20
  9.0999e+04   8.42e-20
  9.2519e+04   8.02e-20
  9.4064e+04   7.63e-20
  9.5635e+04   7.24e-20
  9.7232e+04   6.87e-20
  9.8856e+04   6.52e-20
  1.0051e+05   6.21e-20
  1.0219e+05   5.91e-20
  1.0389e+05   5.61e-20
  1.0563e+05   5.32e-20
  1.0739e+05   5.04e-20
  1.0918e+05   4.77e-20
  1.1101e+05   4.52e-20
  1.1286e+05   4.29e-20
  1.1475e+05   4.07e-20
  1.1666e+05   3.86e-20
  1.1861e+05   3.65e-20
  1.2059e+05   3.45e-20
  1.2260e+05   3.25e-20
  1.2465e+05   3.07e-20
  1.2673e+05   2.91e-20
  1.2885e+05   2.76e-20
  1.3100e+05   2.60e-20
  1.3319e+05   2.46e-20
  1.3541e+05   2.31e-20
  1.3768e+05   2.17e-20
  1.3997e+05   2.05e-20
  1.4231e+05   1.94e-20
  1.4469e+05   1.83e-20
  1.4711e+05   1.72e-20
  1.4956e+05   1.62e-20
  1.5206e+05   1.52e-20
  1.5460e+05   1.43e-20
  1.5718e+05   1.34e-20
  1.5981e+05   1.26e-20
  1.6247e+05   1.19e-20
  1.6519e+05   1.12e-20
  1.6795e+05   1.05e-20
  1.7075e+05   9.79e-21
  1.7360e+05   9.13e-21
  1.7650e+05   8.56e-21
  1.7945e+05   8.05e-21
  1.8245e+05   7.56e-21
  1.8549e+05   7.08e-21
  1.8859e+05   6.61e-21
  1.9174e+05   6.16e-21
  1.9494e+05   5.72e-21
  1.9820e+05   5.35e-21
  2.0151e+05   5.02e-21
  2.0487e+05   4.70e-21
  2.0829e+05   4.39e-21
  2.1177e+05   4.09e-21
  2.1531e+05   3.79e-21
  2.1890e+05   3.51e-21
  2.2256e+05   3.27e-21
  2.2628e+05   3.06e-21
  2.3006e+05   2.86e-21
  2.3390e+05   2.66e-21
  2.3780e+05   2.47e-21
  2.4178e+05   2.28e-21
  2.4581e+05   2.10e-21
  2.4992e+05   1.96e-21
  2.5409e+05   1.83e-21
  2.5833e+05   1.70e-21
  2.6265e+05   1.58e-21
  2.6704e+05   1.46e-21
  2.7149e+05   1.34e-21
  2.7603e+05   1.23e-21
  2.8064e+05   1.15e-21
  2.8532e+05   1.07e-21
  2.9009e+05   9.91e-22
  2.9493e+05   9.16e-22
  2.9986e+05   8.44e-22
  3.0487e+05   7.74e-22
  3.0996e+05   7.06e-22
  3.1513e+05   6.55e-22
  3.2040e+05   6.08e-22
  3.2575e+05   5.62e-22
  3.3119e+05   5.18e-22
  3.3672e+05   4.75e-22
  3.4234e+05   4.34e-22
  3.4806e+05   3.94e-22
  3.5387e+05   3.65e-22
  3.5978e+05   3.38e-22
  3.6579e+05   3.12e-22
  3.7190e+05   2.87e-22
  3.7811e+05   2.63e-22
  3.8442e+05   2.39e-22
  3.9084e+05   2.17e-22
  3.9737e+05   2.01e-22
  4.0401e+05   1.86e-22
  4.1075e+05   1.72e-22
  4.1761e+05   1.58e-22
  4.2459e+05   1.45e-22
  4.3168e+05   1.32e-22
  4.3889e+05   1.19e-22
  4.4622e+05   1.11e-22
  4.5367e+05   1.03e-22
  4.6124e+05   9.51e-23
  4.6895e+05   8.76e-23
  4.7678e+05   8.03e-23
  4.8474e+05   7.33e-23
  4.9283e+05   6.66e-23
  5.0107e+05   6.23e-23
  5.0943e+05   5.81e-23
  5.1794e+05   5.40e-23
  5.2659e+05   5.01e-23
  5.3538e+05   4.63e-23
  5.4432e+05   4.27e-23
  5.5342e+05   3.93e-23
  5.6266e+05   3.70e-23
  5.7205e+05   3.47e-23
  5.8161e+05   3.26e-23
  5.9132e+05   3.05e-23
  6.0119e+05   2.84e-23
  6.1123e+05   2.65e-23
  6.2144e+05   2.47e-23
  6.3182e+05   2.34e-23
  6.4237e+05   2.21e-23
  6.5310e+05   2.08e-23
  6.6401e+05   1.96e-23
  6.7509e+05   1.85e-23
  6.8637e+05   1.73e-23
  6.9783e+05   1.63e-23
  7.0948e+05   1.54e-23
  7.2133e+05   1.46e-23
  7.3338e+05   1.38e-23
  7.4563e+05   1.30e-23
  7.5808e+05   1.23e-23
  7.7074e+05   1.15e-23
  7.8361e+05   1.09e-23
  7.9670e+05   1.04e-23
  8.1000e+05   9.99e-24
