#  E [MeV]   Flux [# cm^{-2} s^{-1}  MeV^{-1}]
  3.0000e+04   1.34e-25
  3.1141e+04   1.28e-25
  3.2326e+04   1.23e-25
  3.3556e+04   1.19e-25
  3.4832e+04   1.14e-25
  3.6157e+04   1.09e-25
  3.7533e+04   1.05e-25
  3.8961e+04   1.01e-25
  4.0443e+04   9.70e-26
  4.1982e+04   9.31e-26
  4.3579e+04   8.94e-26
  4.5237e+04   8.59e-26
  4.6958e+04   8.24e-26
  4.8744e+04   7.91e-26
  5.0598e+04   7.60e-26
  5.2523e+04   7.29e-26
  5.4521e+04   7.00e-26
  5.6596e+04   6.71e-26
  5.8749e+04   6.44e-26
  6.0984e+04   6.18e-26
  6.3304e+04   5.93e-26
  6.5712e+04   5.68e-26
  6.8212e+04   5.45e-26
  7.0807e+04   5.22e-26
  7.3500e+04   5.01e-26
  7.6297e+04   4.80e-26
  7.9199e+04   4.60e-26
  8.2212e+04   4.40e-26
  8.5340e+04   4.22e-26
  8.8586e+04   4.04e-26
  9.1956e+04   3.87e-26
  9.5455e+04   3.70e-26
  9.9086e+04   3.54e-26
  1.0286e+05   3.38e-26
  1.0677e+05   3.24e-26
  1.1083e+05   3.09e-26
  1.1505e+05   2.96e-26
  1.1942e+05   2.82e-26
  1.2397e+05   2.70e-26
  1.2868e+05   2.58e-26
  1.3358e+05   2.46e-26
  1.3866e+05   2.34e-26
  1.4394e+05   2.23e-26
  1.4941e+05   2.13e-26
  1.5509e+05   2.03e-26
  1.6100e+05   1.93e-26
  1.6712e+05   1.84e-26
  1.7348e+05   1.75e-26
  1.8008e+05   1.66e-26
  1.8693e+05   1.58e-26
  1.9404e+05   1.50e-26
  2.0142e+05   1.42e-26
  2.0908e+05   1.35e-26
  2.1704e+05   1.27e-26
  2.2529e+05   1.21e-26
  2.3387e+05   1.14e-26
  2.4276e+05   1.08e-26
  2.5200e+05   1.02e-26
  2.6158e+05   9.60e-27
  2.7154e+05   9.05e-27
  2.8187e+05   8.52e-27
  2.9259e+05   8.01e-27
  3.0372e+05   7.53e-27
  3.1527e+05   7.07e-27
  3.2727e+05   6.63e-27
  3.3972e+05   6.20e-27
  3.5264e+05   5.80e-27
  3.6606e+05   5.42e-27
  3.7998e+05   5.06e-27
  3.9444e+05   4.72e-27
  4.0945e+05   4.39e-27
  4.2502e+05   4.09e-27
  4.4119e+05   3.80e-27
  4.5798e+05   3.53e-27
  4.7540e+05   3.27e-27
  4.9348e+05   3.03e-27
  5.1226e+05   2.80e-27
  5.3175e+05   2.59e-27
  5.5198e+05   2.39e-27
  5.7297e+05   2.20e-27
  5.9477e+05   2.03e-27
  6.1740e+05   1.87e-27
  6.4089e+05   1.72e-27
  6.6527e+05   1.58e-27
  6.9058e+05   1.45e-27
  7.1685e+05   1.33e-27
  7.4412e+05   1.22e-27
  7.7243e+05   1.12e-27
  8.0181e+05   1.03e-27
  8.3232e+05   9.40e-28
  8.6398e+05   8.61e-28
  8.9685e+05   7.88e-28
  9.3097e+05   7.21e-28
  9.6638e+05   6.60e-28
  1.0031e+06   6.04e-28
  1.0413e+06   5.52e-28
  1.0809e+06   5.05e-28
  1.1220e+06   4.62e-28
  1.1647e+06   4.22e-28
  1.2090e+06   3.86e-28
  1.2550e+06   3.53e-28
  1.3028e+06   3.22e-28
  1.3523e+06   2.94e-28
  1.4038e+06   2.69e-28
  1.4572e+06   2.46e-28
  1.5126e+06   2.24e-28
  1.5702e+06   2.05e-28
  1.6299e+06   1.87e-28
  1.6919e+06   1.71e-28
  1.7563e+06   1.56e-28
  1.8231e+06   1.42e-28
  1.8925e+06   1.30e-28
  1.9645e+06   1.18e-28
  2.0392e+06   1.08e-28
  2.1168e+06   9.83e-29
  2.1973e+06   8.95e-29
  2.2809e+06   8.14e-29
  2.3677e+06   7.40e-29
  2.4577e+06   6.72e-29
  2.5512e+06   6.09e-29
  2.6483e+06   5.52e-29
  2.7490e+06   5.00e-29
  2.8536e+06   4.52e-29
  2.9622e+06   4.07e-29
  3.0749e+06   3.68e-29
  3.1918e+06   3.31e-29
  3.3133e+06   2.97e-29
  3.4393e+06   2.67e-29
  3.5702e+06   2.39e-29
  3.7060e+06   2.14e-29
  3.8470e+06   1.91e-29
  3.9933e+06   1.70e-29
  4.1452e+06   1.51e-29
  4.3029e+06   1.34e-29
  4.4666e+06   1.18e-29
  4.6366e+06   1.04e-29
  4.8129e+06   9.17e-30
  4.9960e+06   8.04e-30
  5.1861e+06   7.01e-30
  5.3834e+06   6.11e-30
  5.5882e+06   5.30e-30
  5.8008e+06   4.57e-30
  6.0215e+06   3.94e-30
  6.2506e+06   3.38e-30
  6.4883e+06   2.87e-30
  6.7352e+06   2.44e-30
  6.9914e+06   2.07e-30
  7.2574e+06   1.73e-30
  7.5335e+06   1.44e-30
  7.8201e+06   1.20e-30
  8.1176e+06   9.87e-31
  8.4264e+06   8.05e-31
  8.7470e+06   6.56e-31
  9.0797e+06   5.27e-31
  9.4251e+06   4.18e-31
  9.7837e+06   3.31e-31
  1.0156e+07   2.58e-31
  1.0542e+07   1.98e-31
  1.0943e+07   1.51e-31
  1.1360e+07   1.13e-31
  1.1792e+07   8.29e-32
  1.2240e+07   6.05e-32
  1.2706e+07   4.30e-32
  1.3189e+07   2.97e-32
  1.3691e+07   2.03e-32
  1.4212e+07   1.35e-32
  1.4753e+07   8.60e-33
  1.5314e+07   5.40e-33
  1.5897e+07   3.25e-33
  1.6501e+07   1.86e-33
  1.7129e+07   1.03e-33
  1.7781e+07   5.43e-34
  1.8457e+07   2.66e-34
  1.9159e+07   1.24e-34
  1.9888e+07   5.33e-35
  2.0645e+07   2.08e-35
  2.1430e+07   7.44e-36
  2.2245e+07   2.38e-36
  2.3092e+07   6.58e-37
  2.3970e+07   1.58e-37
  2.4882e+07   3.19e-38
  2.5829e+07   5.18e-39
  2.6811e+07   6.67e-40
  2.7831e+07   6.51e-41
  2.8890e+07   4.49e-42
  2.9989e+07   2.08e-43
  3.1130e+07   6.08e-45
  3.2314e+07   9.91e-47
  3.3544e+07   8.09e-49
  3.4820e+07   2.90e-51
  3.6144e+07   3.69e-54
  3.7519e+07   1.34e-57
  3.8947e+07   1.05e-61
  4.0428e+07   1.18e-66
  4.1966e+07   2.55e-72
  4.3563e+07   2.36e-72
  4.5220e+07   2.18e-72
  4.6941e+07   2.01e-72
  4.8726e+07   1.89e-72
  5.0580e+07   1.76e-72
