#  E [MeV]   Flux [# cm^{-2} s^{-1}  MeV^{-1}]
  3.0000e+04   1.60e-22
  3.0696e+04   1.54e-22
  3.1408e+04   1.48e-22
  3.2137e+04   1.43e-22
  3.2883e+04   1.38e-22
  3.3646e+04   1.32e-22
  3.4426e+04   1.28e-22
  3.5225e+04   1.23e-22
  3.6042e+04   1.18e-22
  3.6878e+04   1.14e-22
  3.7734e+04   1.10e-22
  3.8609e+04   1.05e-22
  3.9505e+04   1.01e-22
  4.0422e+04   9.76e-23
  4.1360e+04   9.39e-23
  4.2319e+04   9.03e-23
  4.3301e+04   8.68e-23
  4.4306e+04   8.34e-23
  4.5334e+04   8.02e-23
  4.6386e+04   7.71e-23
  4.7462e+04   7.40e-23
  4.8563e+04   7.11e-23
  4.9690e+04   6.83e-23
  5.0843e+04   6.56e-23
  5.2022e+04   6.29e-23
  5.3229e+04   6.04e-23
  5.4464e+04   5.79e-23
  5.5728e+04   5.56e-23
  5.7021e+04   5.33e-23
  5.8344e+04   5.11e-23
  5.9697e+04   4.90e-23
  6.1083e+04   4.70e-23
  6.2500e+04   4.50e-23
  6.3950e+04   4.31e-23
  6.5434e+04   4.13e-23
  6.6952e+04   3.95e-23
  6.8505e+04   3.78e-23
  7.0095e+04   3.62e-23
  7.1721e+04   3.46e-23
  7.3385e+04   3.31e-23
  7.5088e+04   3.16e-23
  7.6830e+04   3.02e-23
  7.8612e+04   2.89e-23
  8.0436e+04   2.76e-23
  8.2302e+04   2.63e-23
  8.4212e+04   2.51e-23
  8.6166e+04   2.40e-23
  8.8165e+04   2.29e-23
  9.0210e+04   2.18e-23
  9.2304e+04   2.08e-23
  9.4445e+04   1.98e-23
  9.6636e+04   1.89e-23
  9.8878e+04   1.80e-23
  1.0117e+05   1.71e-23
  1.0352e+05   1.63e-23
  1.0592e+05   1.55e-23
  1.0838e+05   1.47e-23
  1.1089e+05   1.40e-23
  1.1347e+05   1.33e-23
  1.1610e+05   1.27e-23
  1.1879e+05   1.20e-23
  1.2155e+05   1.14e-23
  1.2437e+05   1.08e-23
  1.2725e+05   1.03e-23
  1.3021e+05   9.76e-24
  1.3323e+05   9.26e-24
  1.3632e+05   8.77e-24
  1.3948e+05   8.30e-24
  1.4272e+05   7.87e-24
  1.4603e+05   7.45e-24
  1.4942e+05   7.04e-24
  1.5288e+05   6.65e-24
  1.5643e+05   6.28e-24
  1.6006e+05   5.94e-24
  1.6377e+05   5.61e-24
  1.6757e+05   5.29e-24
  1.7146e+05   4.99e-24
  1.7544e+05   4.70e-24
  1.7951e+05   4.44e-24
  1.8368e+05   4.18e-24
  1.8794e+05   3.94e-24
  1.9230e+05   3.70e-24
  1.9676e+05   3.48e-24
  2.0132e+05   3.27e-24
  2.0600e+05   3.08e-24
  2.1078e+05   2.89e-24
  2.1567e+05   2.71e-24
  2.2067e+05   2.54e-24
  2.2579e+05   2.39e-24
  2.3103e+05   2.24e-24
  2.3639e+05   2.10e-24
  2.4187e+05   1.96e-24
  2.4748e+05   1.83e-24
  2.5323e+05   1.72e-24
  2.5910e+05   1.61e-24
  2.6511e+05   1.50e-24
  2.7126e+05   1.40e-24
  2.7756e+05   1.31e-24
  2.8400e+05   1.22e-24
  2.9059e+05   1.14e-24
  2.9733e+05   1.06e-24
  3.0423e+05   9.88e-25
  3.1129e+05   9.16e-25
  3.1851e+05   8.54e-25
  3.2590e+05   7.95e-25
  3.3346e+05   7.39e-25
  3.4120e+05   6.84e-25
  3.4911e+05   6.32e-25
  3.5721e+05   5.88e-25
  3.6550e+05   5.46e-25
  3.7398e+05   5.06e-25
  3.8266e+05   4.67e-25
  3.9154e+05   4.30e-25
  4.0062e+05   3.99e-25
  4.0991e+05   3.70e-25
  4.1943e+05   3.41e-25
  4.2916e+05   3.14e-25
  4.3911e+05   2.88e-25
  4.4930e+05   2.67e-25
  4.5973e+05   2.47e-25
  4.7039e+05   2.27e-25
  4.8131e+05   2.08e-25
  4.9247e+05   1.91e-25
  5.0390e+05   1.76e-25
  5.1559e+05   1.62e-25
  5.2755e+05   1.49e-25
  5.3979e+05   1.36e-25
  5.5232e+05   1.24e-25
  5.6513e+05   1.14e-25
  5.7824e+05   1.05e-25
  5.9166e+05   9.60e-26
  6.0539e+05   8.75e-26
  6.1943e+05   7.94e-26
  6.3381e+05   7.28e-26
  6.4851e+05   6.68e-26
  6.6356e+05   6.10e-26
  6.7895e+05   5.54e-26
  6.9471e+05   5.02e-26
  7.1082e+05   4.59e-26
  7.2732e+05   4.20e-26
  7.4419e+05   3.83e-26
  7.6146e+05   3.47e-26
  7.7912e+05   3.14e-26
  7.9720e+05   2.87e-26
  8.1570e+05   2.62e-26
  8.3462e+05   2.38e-26
  8.5399e+05   2.16e-26
  8.7380e+05   1.94e-26
  8.9407e+05   1.78e-26
  9.1482e+05   1.62e-26
  9.3604e+05   1.48e-26
  9.5776e+05   1.34e-26
  9.7998e+05   1.20e-26
  1.0027e+06   1.10e-26
  1.0260e+06   1.00e-26
  1.0498e+06   9.14e-27
  1.0741e+06   8.28e-27
  1.0991e+06   7.46e-27
  1.1246e+06   6.82e-27
  1.1507e+06   6.25e-27
  1.1774e+06   5.71e-27
  1.2047e+06   5.19e-27
  1.2326e+06   4.69e-27
  1.2612e+06   4.31e-27
  1.2905e+06   3.97e-27
  1.3204e+06   3.64e-27
  1.3511e+06   3.33e-27
  1.3824e+06   3.03e-27
  1.4145e+06   2.79e-27
  1.4473e+06   2.58e-27
  1.4809e+06   2.38e-27
  1.5152e+06   2.19e-27
  1.5504e+06   2.01e-27
  1.5864e+06   1.86e-27
  1.6232e+06   1.73e-27
  1.6608e+06   1.61e-27
  1.6994e+06   1.49e-27
  1.7388e+06   1.37e-27
  1.7791e+06   1.28e-27
  1.8204e+06   1.20e-27
  1.8626e+06   1.12e-27
  1.9059e+06   1.04e-27
  1.9501e+06   9.66e-28
  1.9953e+06   9.03e-28
  2.0416e+06   8.46e-28
  2.0890e+06   7.92e-28
  2.1375e+06   7.39e-28
  2.1870e+06   6.89e-28
  2.2378e+06   6.45e-28
  2.2897e+06   6.03e-28
  2.3428e+06   5.64e-28
  2.3972e+06   5.26e-28
  2.4528e+06   4.89e-28
  2.5097e+06   4.55e-28
  2.5680e+06   4.23e-28
  2.6275e+06   3.92e-28
  2.6885e+06   3.62e-28
  2.7509e+06   3.34e-28
  2.8147e+06   3.11e-28
  2.8800e+06   2.93e-28
