#  E [MeV]   Flux [# cm^{-2} s^{-1}  MeV^{-1}]
  3.0000e+04   1.87e-20
  3.1123e+04   1.80e-20
  3.2288e+04   1.73e-20
  3.3497e+04   1.66e-20
  3.4751e+04   1.60e-20
  3.6051e+04   1.54e-20
  3.7401e+04   1.48e-20
  3.8801e+04   1.42e-20
  4.0253e+04   1.36e-20
  4.1760e+04   1.31e-20
  4.3324e+04   1.26e-20
  4.4945e+04   1.21e-20
  4.6628e+04   1.16e-20
  4.8373e+04   1.12e-20
  5.0184e+04   1.07e-20
  5.2063e+04   1.03e-20
  5.4011e+04   9.91e-21
  5.6033e+04   9.51e-21
  5.8131e+04   9.13e-21
  6.0307e+04   8.77e-21
  6.2564e+04   8.42e-21
  6.4906e+04   8.08e-21
  6.7336e+04   7.75e-21
  6.9857e+04   7.43e-21
  7.2472e+04   7.13e-21
  7.5184e+04   6.84e-21
  7.7999e+04   6.56e-21
  8.0919e+04   6.28e-21
  8.3948e+04   6.02e-21
  8.7090e+04   5.77e-21
  9.0350e+04   5.53e-21
  9.3732e+04   5.30e-21
  9.7241e+04   5.07e-21
  1.0088e+05   4.85e-21
  1.0466e+05   4.64e-21
  1.0858e+05   4.44e-21
  1.1264e+05   4.25e-21
  1.1686e+05   4.06e-21
  1.2123e+05   3.88e-21
  1.2577e+05   3.71e-21
  1.3048e+05   3.54e-21
  1.3536e+05   3.38e-21
  1.4043e+05   3.23e-21
  1.4568e+05   3.08e-21
  1.5114e+05   2.94e-21
  1.5680e+05   2.80e-21
  1.6266e+05   2.67e-21
  1.6875e+05   2.54e-21
  1.7507e+05   2.41e-21
  1.8162e+05   2.30e-21
  1.8842e+05   2.18e-21
  1.9548e+05   2.07e-21
  2.0279e+05   1.97e-21
  2.1039e+05   1.87e-21
  2.1826e+05   1.77e-21
  2.2643e+05   1.68e-21
  2.3491e+05   1.59e-21
  2.4370e+05   1.50e-21
  2.5282e+05   1.42e-21
  2.6229e+05   1.34e-21
  2.7211e+05   1.27e-21
  2.8229e+05   1.20e-21
  2.9286e+05   1.13e-21
  3.0382e+05   1.06e-21
  3.1519e+05   9.97e-22
  3.2699e+05   9.37e-22
  3.3923e+05   8.79e-22
  3.5193e+05   8.24e-22
  3.6511e+05   7.72e-22
  3.7877e+05   7.23e-22
  3.9295e+05   6.76e-22
  4.0766e+05   6.31e-22
  4.2292e+05   5.89e-22
  4.3875e+05   5.49e-22
  4.5518e+05   5.11e-22
  4.7222e+05   4.76e-22
  4.8989e+05   4.42e-22
  5.0823e+05   4.11e-22
  5.2726e+05   3.81e-22
  5.4699e+05   3.53e-22
  5.6747e+05   3.27e-22
  5.8871e+05   3.02e-22
  6.1075e+05   2.79e-22
  6.3361e+05   2.58e-22
  6.5733e+05   2.38e-22
  6.8194e+05   2.20e-22
  7.0746e+05   2.03e-22
  7.3395e+05   1.87e-22
  7.6142e+05   1.72e-22
  7.8992e+05   1.58e-22
  8.1949e+05   1.46e-22
  8.5017e+05   1.34e-22
  8.8199e+05   1.23e-22
  9.1501e+05   1.13e-22
  9.4926e+05   1.04e-22
  9.8479e+05   9.54e-23
  1.0217e+06   8.76e-23
  1.0599e+06   8.04e-23
  1.0996e+06   7.38e-23
  1.1407e+06   6.76e-23
  1.1834e+06   6.20e-23
  1.2277e+06   5.68e-23
  1.2737e+06   5.21e-23
  1.3214e+06   4.77e-23
  1.3708e+06   4.37e-23
  1.4222e+06   4.01e-23
  1.4754e+06   3.67e-23
  1.5306e+06   3.36e-23
  1.5879e+06   3.07e-23
  1.6474e+06   2.81e-23
  1.7090e+06   2.57e-23
  1.7730e+06   2.35e-23
  1.8394e+06   2.15e-23
  1.9082e+06   1.96e-23
  1.9797e+06   1.79e-23
  2.0538e+06   1.63e-23
  2.1306e+06   1.49e-23
  2.2104e+06   1.36e-23
  2.2931e+06   1.24e-23
  2.3790e+06   1.12e-23
  2.4680e+06   1.02e-23
  2.5604e+06   9.28e-24
  2.6563e+06   8.40e-24
  2.7557e+06   7.63e-24
  2.8589e+06   6.90e-24
  2.9659e+06   6.23e-24
  3.0769e+06   5.63e-24
  3.1921e+06   5.08e-24
  3.3116e+06   4.57e-24
  3.4355e+06   4.11e-24
  3.5641e+06   3.69e-24
  3.6976e+06   3.30e-24
  3.8360e+06   2.96e-24
  3.9796e+06   2.64e-24
  4.1285e+06   2.35e-24
  4.2831e+06   2.09e-24
  4.4434e+06   1.86e-24
  4.6097e+06   1.64e-24
  4.7823e+06   1.45e-24
  4.9613e+06   1.28e-24
  5.1470e+06   1.12e-24
  5.3397e+06   9.80e-25
  5.5396e+06   8.59e-25
  5.7470e+06   7.47e-25
  5.9621e+06   6.46e-25
  6.1853e+06   5.61e-25
  6.4168e+06   4.83e-25
  6.6570e+06   4.13e-25
  6.9062e+06   3.54e-25
  7.1647e+06   3.02e-25
  7.4329e+06   2.54e-25
  7.7112e+06   2.15e-25
  7.9998e+06   1.81e-25
  8.2993e+06   1.50e-25
  8.6100e+06   1.24e-25
  8.9323e+06   1.03e-25
  9.2666e+06   8.35e-26
  9.6135e+06   6.77e-26
  9.9734e+06   5.47e-26
  1.0347e+07   4.34e-26
  1.0734e+07   3.42e-26
  1.1136e+07   2.69e-26
  1.1553e+07   2.07e-26
  1.1985e+07   1.57e-26
  1.2434e+07   1.19e-26
  1.2899e+07   8.76e-27
  1.3382e+07   6.33e-27
  1.3883e+07   4.56e-27
  1.4403e+07   3.19e-27
  1.4942e+07   2.16e-27
  1.5501e+07   1.46e-27
  1.6081e+07   9.46e-28
  1.6683e+07   5.89e-28
  1.7308e+07   3.59e-28
  1.7956e+07   2.10e-28
  1.8628e+07   1.16e-28
  1.9325e+07   6.12e-29
  2.0049e+07   3.05e-29
  2.0799e+07   1.41e-29
  2.1578e+07   6.06e-30
  2.2386e+07   2.40e-30
  2.3224e+07   8.48e-31
  2.4093e+07   2.67e-31
  2.4995e+07   7.42e-32
  2.5930e+07   1.73e-32
  2.6901e+07   3.35e-33
  2.7908e+07   5.28e-34
  2.8953e+07   6.30e-35
  3.0037e+07   5.47e-36
  3.1161e+07   3.32e-37
  3.2327e+07   1.27e-38
  3.3537e+07   2.77e-40
  3.4793e+07   3.18e-42
  3.6095e+07   1.60e-44
  3.7446e+07   2.90e-47
  3.8848e+07   1.53e-50
  4.0302e+07   1.69e-54
  4.1811e+07   2.63e-59
  4.3376e+07   3.45e-65
  4.5000e+07   2.93e-67
