#  E [MeV]   Flux [# cm^{-2} s^{-1}  MeV^{-1}]
  3.0000e+04   1.01e-19
  3.0675e+04   9.73e-20
  3.1366e+04   9.42e-20
  3.2072e+04   9.11e-20
  3.2794e+04   8.81e-20
  3.3533e+04   8.53e-20
  3.4288e+04   8.25e-20
  3.5060e+04   7.97e-20
  3.5849e+04   7.71e-20
  3.6656e+04   7.45e-20
  3.7482e+04   7.20e-20
  3.8326e+04   6.96e-20
  3.9188e+04   6.73e-20
  4.0071e+04   6.50e-20
  4.0973e+04   6.28e-20
  4.1896e+04   6.06e-20
  4.2839e+04   5.85e-20
  4.3803e+04   5.65e-20
  4.4790e+04   5.45e-20
  4.5798e+04   5.26e-20
  4.6829e+04   5.08e-20
  4.7884e+04   4.90e-20
  4.8962e+04   4.73e-20
  5.0064e+04   4.56e-20
  5.1191e+04   4.40e-20
  5.2344e+04   4.24e-20
  5.3522e+04   4.08e-20
  5.4727e+04   3.94e-20
  5.5960e+04   3.79e-20
  5.7219e+04   3.66e-20
  5.8508e+04   3.52e-20
  5.9825e+04   3.39e-20
  6.1172e+04   3.26e-20
  6.2549e+04   3.14e-20
  6.3958e+04   3.02e-20
  6.5398e+04   2.91e-20
  6.6870e+04   2.80e-20
  6.8376e+04   2.69e-20
  6.9915e+04   2.59e-20
  7.1489e+04   2.49e-20
  7.3099e+04   2.39e-20
  7.4745e+04   2.30e-20
  7.6428e+04   2.21e-20
  7.8148e+04   2.12e-20
  7.9908e+04   2.04e-20
  8.1707e+04   1.96e-20
  8.3547e+04   1.88e-20
  8.5428e+04   1.80e-20
  8.7351e+04   1.73e-20
  8.9318e+04   1.66e-20
  9.1329e+04   1.59e-20
  9.3385e+04   1.53e-20
  9.5488e+04   1.47e-20
  9.7638e+04   1.41e-20
  9.9836e+04   1.35e-20
  1.0208e+05   1.29e-20
  1.0438e+05   1.24e-20
  1.0673e+05   1.18e-20
  1.0914e+05   1.13e-20
  1.1159e+05   1.09e-20
  1.1411e+05   1.04e-20
  1.1667e+05   9.95e-21
  1.1930e+05   9.52e-21
  1.2199e+05   9.10e-21
  1.2473e+05   8.71e-21
  1.2754e+05   8.32e-21
  1.3041e+05   7.95e-21
  1.3335e+05   7.59e-21
  1.3635e+05   7.25e-21
  1.3942e+05   6.93e-21
  1.4256e+05   6.61e-21
  1.4577e+05   6.31e-21
  1.4905e+05   6.02e-21
  1.5241e+05   5.74e-21
  1.5584e+05   5.47e-21
  1.5935e+05   5.22e-21
  1.6294e+05   4.97e-21
  1.6661e+05   4.73e-21
  1.7036e+05   4.51e-21
  1.7419e+05   4.29e-21
  1.7812e+05   4.09e-21
  1.8213e+05   3.89e-21
  1.8623e+05   3.70e-21
  1.9042e+05   3.51e-21
  1.9471e+05   3.34e-21
  1.9909e+05   3.18e-21
  2.0357e+05   3.02e-21
  2.0816e+05   2.86e-21
  2.1284e+05   2.72e-21
  2.1763e+05   2.58e-21
  2.2253e+05   2.45e-21
  2.2755e+05   2.32e-21
  2.3267e+05   2.20e-21
  2.3791e+05   2.08e-21
  2.4326e+05   1.97e-21
  2.4874e+05   1.87e-21
  2.5434e+05   1.77e-21
  2.6007e+05   1.67e-21
  2.6592e+05   1.58e-21
  2.7191e+05   1.49e-21
  2.7803e+05   1.41e-21
  2.8429e+05   1.33e-21
  2.9069e+05   1.25e-21
  2.9724e+05   1.18e-21
  3.0393e+05   1.11e-21
  3.1077e+05   1.05e-21
  3.1777e+05   9.90e-22
  3.2493e+05   9.31e-22
  3.3224e+05   8.75e-22
  3.3972e+05   8.22e-22
  3.4737e+05   7.74e-22
  3.5519e+05   7.28e-22
  3.6319e+05   6.83e-22
  3.7137e+05   6.41e-22
  3.7973e+05   6.00e-22
  3.8828e+05   5.63e-22
  3.9702e+05   5.29e-22
  4.0596e+05   4.95e-22
  4.1510e+05   4.63e-22
  4.2444e+05   4.33e-22
  4.3400e+05   4.05e-22
  4.4377e+05   3.79e-22
  4.5376e+05   3.55e-22
  4.6398e+05   3.31e-22
  4.7443e+05   3.08e-22
  4.8511e+05   2.88e-22
  4.9603e+05   2.69e-22
  5.0720e+05   2.50e-22
  5.1862e+05   2.33e-22
  5.3030e+05   2.16e-22
  5.4224e+05   2.01e-22
  5.5444e+05   1.87e-22
  5.6693e+05   1.74e-22
  5.7969e+05   1.62e-22
  5.9274e+05   1.50e-22
  6.0609e+05   1.39e-22
  6.1974e+05   1.29e-22
  6.3369e+05   1.20e-22
  6.4796e+05   1.11e-22
  6.6255e+05   1.03e-22
  6.7746e+05   9.49e-23
  6.9272e+05   8.83e-23
  7.0831e+05   8.19e-23
  7.2426e+05   7.59e-23
  7.4057e+05   7.01e-23
  7.5724e+05   6.46e-23
  7.7429e+05   6.00e-23
  7.9172e+05   5.57e-23
  8.0955e+05   5.15e-23
  8.2778e+05   4.76e-23
  8.4641e+05   4.39e-23
  8.6547e+05   4.07e-23
  8.8496e+05   3.78e-23
  9.0488e+05   3.50e-23
  9.2526e+05   3.24e-23
  9.4609e+05   2.99e-23
  9.6739e+05   2.78e-23
  9.8917e+05   2.59e-23
  1.0114e+06   2.41e-23
  1.0342e+06   2.24e-23
  1.0575e+06   2.08e-23
  1.0813e+06   1.93e-23
  1.1057e+06   1.81e-23
  1.1305e+06   1.70e-23
  1.1560e+06   1.59e-23
  1.1820e+06   1.49e-23
  1.2086e+06   1.39e-23
  1.2359e+06   1.32e-23
  1.2637e+06   1.25e-23
  1.2921e+06   1.18e-23
  1.3212e+06   1.12e-23
  1.3510e+06   1.05e-23
  1.3814e+06   1.01e-23
  1.4125e+06   9.65e-24
  1.4443e+06   9.23e-24
  1.4768e+06   8.83e-24
  1.5101e+06   8.45e-24
  1.5441e+06   8.22e-24
  1.5788e+06   8.02e-24
  1.6144e+06   7.82e-24
  1.6507e+06   7.63e-24
  1.6879e+06   7.44e-24
  1.7259e+06   7.37e-24
  1.7648e+06   7.35e-24
  1.8045e+06   7.32e-24
  1.8451e+06   7.29e-24
  1.8867e+06   7.26e-24
  1.9291e+06   7.38e-24
  1.9726e+06   7.62e-24
  2.0170e+06   7.84e-24
  2.0624e+06   8.05e-24
  2.1088e+06   8.24e-24
  2.1563e+06   8.47e-24
  2.2049e+06   8.78e-24
  2.2545e+06   9.06e-24
  2.3053e+06   9.33e-24
  2.3572e+06   9.57e-24
  2.4102e+06   9.31e-24
  2.4645e+06   7.26e-24
  2.5200e+06   5.31e-24
