#  E [MeV]   Flux [# cm^{-2} s^{-1}  MeV^{-1}]
  3.0000e+04   1.65e-24
  3.1141e+04   1.58e-24
  3.2326e+04   1.51e-24
  3.3556e+04   1.44e-24
  3.4832e+04   1.38e-24
  3.6157e+04   1.31e-24
  3.7533e+04   1.26e-24
  3.8961e+04   1.20e-24
  4.0443e+04   1.15e-24
  4.1982e+04   1.09e-24
  4.3579e+04   1.05e-24
  4.5237e+04   9.98e-25
  4.6958e+04   9.52e-25
  4.8744e+04   9.09e-25
  5.0598e+04   8.67e-25
  5.2523e+04   8.27e-25
  5.4521e+04   7.89e-25
  5.6596e+04   7.52e-25
  5.8749e+04   7.17e-25
  6.0984e+04   6.84e-25
  6.3304e+04   6.52e-25
  6.5712e+04   6.21e-25
  6.8212e+04   5.92e-25
  7.0807e+04   5.64e-25
  7.3500e+04   5.37e-25
  7.6297e+04   5.12e-25
  7.9199e+04   4.87e-25
  8.2212e+04   4.64e-25
  8.5340e+04   4.41e-25
  8.8586e+04   4.20e-25
  9.1956e+04   3.99e-25
  9.5455e+04   3.80e-25
  9.9086e+04   3.61e-25
  1.0286e+05   3.44e-25
  1.0677e+05   3.27e-25
  1.1083e+05   3.10e-25
  1.1505e+05   2.95e-25
  1.1942e+05   2.80e-25
  1.2397e+05   2.66e-25
  1.2868e+05   2.53e-25
  1.3358e+05   2.40e-25
  1.3866e+05   2.28e-25
  1.4394e+05   2.16e-25
  1.4941e+05   2.05e-25
  1.5509e+05   1.94e-25
  1.6100e+05   1.84e-25
  1.6712e+05   1.74e-25
  1.7348e+05   1.65e-25
  1.8008e+05   1.56e-25
  1.8693e+05   1.48e-25
  1.9404e+05   1.40e-25
  2.0142e+05   1.32e-25
  2.0908e+05   1.25e-25
  2.1704e+05   1.18e-25
  2.2529e+05   1.12e-25
  2.3387e+05   1.06e-25
  2.4276e+05   9.97e-26
  2.5200e+05   9.41e-26
  2.6158e+05   8.87e-26
  2.7154e+05   8.36e-26
  2.8187e+05   7.88e-26
  2.9259e+05   7.42e-26
  3.0372e+05   6.98e-26
  3.1527e+05   6.56e-26
  3.2727e+05   6.17e-26
  3.3972e+05   5.79e-26
  3.5264e+05   5.44e-26
  3.6606e+05   5.10e-26
  3.7998e+05   4.78e-26
  3.9444e+05   4.48e-26
  4.0945e+05   4.19e-26
  4.2502e+05   3.92e-26
  4.4119e+05   3.67e-26
  4.5798e+05   3.43e-26
  4.7540e+05   3.20e-26
  4.9348e+05   2.99e-26
  5.1226e+05   2.79e-26
  5.3175e+05   2.60e-26
  5.5198e+05   2.42e-26
  5.7297e+05   2.25e-26
  5.9477e+05   2.09e-26
  6.1740e+05   1.95e-26
  6.4089e+05   1.81e-26
  6.6527e+05   1.68e-26
  6.9058e+05   1.56e-26
  7.1685e+05   1.45e-26
  7.4412e+05   1.34e-26
  7.7243e+05   1.24e-26
  8.0181e+05   1.15e-26
  8.3232e+05   1.07e-26
  8.6398e+05   9.87e-27
  8.9685e+05   9.14e-27
  9.3097e+05   8.45e-27
  9.6638e+05   7.81e-27
  1.0031e+06   7.22e-27
  1.0413e+06   6.66e-27
  1.0809e+06   6.15e-27
  1.1220e+06   5.67e-27
  1.1647e+06   5.23e-27
  1.2090e+06   4.82e-27
  1.2550e+06   4.44e-27
  1.3028e+06   4.09e-27
  1.3523e+06   3.76e-27
  1.4038e+06   3.46e-27
  1.4572e+06   3.18e-27
  1.5126e+06   2.92e-27
  1.5702e+06   2.69e-27
  1.6299e+06   2.47e-27
  1.6919e+06   2.26e-27
  1.7563e+06   2.07e-27
  1.8231e+06   1.90e-27
  1.8925e+06   1.74e-27
  1.9645e+06   1.59e-27
  2.0392e+06   1.45e-27
  2.1168e+06   1.33e-27
  2.1973e+06   1.21e-27
  2.2809e+06   1.11e-27
  2.3677e+06   1.01e-27
  2.4577e+06   9.16e-28
  2.5512e+06   8.34e-28
  2.6483e+06   7.57e-28
  2.7490e+06   6.86e-28
  2.8536e+06   6.22e-28
  2.9622e+06   5.63e-28
  3.0749e+06   5.08e-28
  3.1918e+06   4.60e-28
  3.3133e+06   4.15e-28
  3.4393e+06   3.72e-28
  3.5702e+06   3.36e-28
  3.7060e+06   3.01e-28
  3.8470e+06   2.70e-28
  3.9933e+06   2.42e-28
  4.1452e+06   2.16e-28
  4.3029e+06   1.93e-28
  4.4666e+06   1.72e-28
  4.6366e+06   1.53e-28
  4.8129e+06   1.36e-28
  4.9960e+06   1.20e-28
  5.1861e+06   1.06e-28
  5.3834e+06   9.36e-29
  5.5882e+06   8.24e-29
  5.8008e+06   7.26e-29
  6.0215e+06   6.34e-29
  6.2506e+06   5.54e-29
  6.4883e+06   4.85e-29
  6.7352e+06   4.21e-29
  6.9914e+06   3.65e-29
  7.2574e+06   3.17e-29
  7.5335e+06   2.73e-29
  7.8201e+06   2.34e-29
  8.1176e+06   2.02e-29
  8.4264e+06   1.73e-29
  8.7470e+06   1.47e-29
  9.0797e+06   1.25e-29
  9.4251e+06   1.06e-29
  9.7837e+06   8.88e-30
  1.0156e+07   7.50e-30
  1.0542e+07   6.26e-30
  1.0943e+07   5.16e-30
  1.1360e+07   4.31e-30
  1.1792e+07   3.54e-30
  1.2240e+07   2.87e-30
  1.2706e+07   2.36e-30
  1.3189e+07   1.90e-30
  1.3691e+07   1.51e-30
  1.4212e+07   1.21e-30
  1.4753e+07   9.57e-31
  1.5314e+07   7.40e-31
  1.5897e+07   5.74e-31
  1.6501e+07   4.39e-31
  1.7129e+07   3.27e-31
  1.7781e+07   2.43e-31
  1.8457e+07   1.77e-31
  1.9159e+07   1.25e-31
  1.9888e+07   8.72e-32
  2.0645e+07   5.93e-32
  2.1430e+07   3.87e-32
  2.2245e+07   2.45e-32
  2.3092e+07   1.49e-32
  2.3970e+07   8.58e-33
  2.4882e+07   4.66e-33
  2.5829e+07   2.37e-33
  2.6811e+07   1.10e-33
  2.7831e+07   4.62e-34
  2.8890e+07   1.73e-34
  2.9989e+07   5.57e-35
  3.1130e+07   1.51e-35
  3.2314e+07   3.32e-36
  3.3544e+07   5.63e-37
  3.4820e+07   6.96e-38
  3.6144e+07   5.86e-39
  3.7519e+07   3.05e-40
  3.8947e+07   8.67e-42
  4.0428e+07   1.16e-43
  4.1966e+07   5.98e-46
  4.3563e+07   9.16e-49
  4.5220e+07   2.96e-52
  4.6941e+07   1.27e-56
  4.8726e+07   3.96e-62
  5.0580e+07   3.99e-69
