#  E [MeV]   Flux [# cm^{-2} s^{-1}  MeV^{-1}]
  3.0000e+04   1.37e-21
  3.1123e+04   1.31e-21
  3.2288e+04   1.27e-21
  3.3497e+04   1.22e-21
  3.4751e+04   1.17e-21
  3.6051e+04   1.13e-21
  3.7401e+04   1.08e-21
  3.8801e+04   1.04e-21
  4.0253e+04   1.00e-21
  4.1760e+04   9.62e-22
  4.3324e+04   9.25e-22
  4.4945e+04   8.88e-22
  4.6628e+04   8.53e-22
  4.8373e+04   8.19e-22
  5.0184e+04   7.87e-22
  5.2063e+04   7.55e-22
  5.4011e+04   7.25e-22
  5.6033e+04   6.95e-22
  5.8131e+04   6.67e-22
  6.0307e+04   6.40e-22
  6.2564e+04   6.14e-22
  6.4906e+04   5.89e-22
  6.7336e+04   5.64e-22
  6.9857e+04   5.41e-22
  7.2472e+04   5.18e-22
  7.5184e+04   4.97e-22
  7.7999e+04   4.76e-22
  8.0919e+04   4.56e-22
  8.3948e+04   4.37e-22
  8.7090e+04   4.18e-22
  9.0350e+04   4.00e-22
  9.3732e+04   3.83e-22
  9.7241e+04   3.66e-22
  1.0088e+05   3.51e-22
  1.0466e+05   3.35e-22
  1.0858e+05   3.21e-22
  1.1264e+05   3.07e-22
  1.1686e+05   2.93e-22
  1.2123e+05   2.80e-22
  1.2577e+05   2.68e-22
  1.3048e+05   2.56e-22
  1.3536e+05   2.45e-22
  1.4043e+05   2.34e-22
  1.4568e+05   2.23e-22
  1.5114e+05   2.13e-22
  1.5680e+05   2.03e-22
  1.6266e+05   1.94e-22
  1.6875e+05   1.85e-22
  1.7507e+05   1.77e-22
  1.8162e+05   1.69e-22
  1.8842e+05   1.61e-22
  1.9548e+05   1.54e-22
  2.0279e+05   1.47e-22
  2.1039e+05   1.40e-22
  2.1826e+05   1.34e-22
  2.2643e+05   1.27e-22
  2.3491e+05   1.22e-22
  2.4370e+05   1.16e-22
  2.5282e+05   1.11e-22
  2.6229e+05   1.05e-22
  2.7211e+05   1.00e-22
  2.8229e+05   9.58e-23
  2.9286e+05   9.14e-23
  3.0382e+05   8.71e-23
  3.1519e+05   8.31e-23
  3.2699e+05   7.92e-23
  3.3923e+05   7.55e-23
  3.5193e+05   7.20e-23
  3.6511e+05   6.87e-23
  3.7877e+05   6.55e-23
  3.9295e+05   6.25e-23
  4.0766e+05   5.96e-23
  4.2292e+05   5.68e-23
  4.3875e+05   5.42e-23
  4.5518e+05   5.17e-23
  4.7222e+05   4.93e-23
  4.8989e+05   4.71e-23
  5.0823e+05   4.49e-23
  5.2726e+05   4.29e-23
  5.4699e+05   4.09e-23
  5.6747e+05   3.91e-23
  5.8871e+05   3.74e-23
  6.1075e+05   3.57e-23
  6.3361e+05   3.42e-23
  6.5733e+05   3.27e-23
  6.8194e+05   3.12e-23
  7.0746e+05   2.99e-23
  7.3395e+05   2.86e-23
  7.6142e+05   2.74e-23
  7.8992e+05   2.62e-23
  8.1949e+05   2.52e-23
  8.5017e+05   2.41e-23
  8.8199e+05   2.31e-23
  9.1501e+05   2.22e-23
  9.4926e+05   2.13e-23
  9.8479e+05   2.05e-23
  1.0217e+06   1.97e-23
  1.0599e+06   1.89e-23
  1.0996e+06   1.82e-23
  1.1407e+06   1.75e-23
  1.1834e+06   1.69e-23
  1.2277e+06   1.63e-23
  1.2737e+06   1.57e-23
  1.3214e+06   1.51e-23
  1.3708e+06   1.46e-23
  1.4222e+06   1.41e-23
  1.4754e+06   1.36e-23
  1.5306e+06   1.31e-23
  1.5879e+06   1.27e-23
  1.6474e+06   1.23e-23
  1.7090e+06   1.19e-23
  1.7730e+06   1.15e-23
  1.8394e+06   1.11e-23
  1.9082e+06   1.07e-23
  1.9797e+06   1.04e-23
  2.0538e+06   1.01e-23
  2.1306e+06   9.74e-24
  2.2104e+06   9.43e-24
  2.2931e+06   9.13e-24
  2.3790e+06   8.84e-24
  2.4680e+06   8.56e-24
  2.5604e+06   8.28e-24
  2.6563e+06   8.01e-24
  2.7557e+06   7.75e-24
  2.8589e+06   7.49e-24
  2.9659e+06   7.24e-24
  3.0769e+06   6.99e-24
  3.1921e+06   6.75e-24
  3.3116e+06   6.51e-24
  3.4355e+06   6.28e-24
  3.5641e+06   6.05e-24
  3.6976e+06   5.83e-24
  3.8360e+06   5.61e-24
  3.9796e+06   5.39e-24
  4.1285e+06   5.18e-24
  4.2831e+06   4.98e-24
  4.4434e+06   4.77e-24
  4.6097e+06   4.57e-24
  4.7823e+06   4.37e-24
  4.9613e+06   4.17e-24
  5.1470e+06   3.97e-24
  5.3397e+06   3.79e-24
  5.5396e+06   3.60e-24
  5.7470e+06   3.41e-24
  5.9621e+06   3.23e-24
  6.1853e+06   3.06e-24
  6.4168e+06   2.88e-24
  6.6570e+06   2.71e-24
  6.9062e+06   2.55e-24
  7.1647e+06   2.39e-24
  7.4329e+06   2.23e-24
  7.7112e+06   2.08e-24
  7.9998e+06   1.93e-24
  8.2993e+06   1.78e-24
  8.6100e+06   1.65e-24
  8.9323e+06   1.51e-24
  9.2666e+06   1.38e-24
  9.6135e+06   1.26e-24
  9.9734e+06   1.14e-24
  1.0347e+07   1.03e-24
  1.0734e+07   9.20e-25
  1.1136e+07   8.19e-25
  1.1553e+07   7.24e-25
  1.1985e+07   6.36e-25
  1.2434e+07   5.55e-25
  1.2899e+07   4.79e-25
  1.3382e+07   4.10e-25
  1.3883e+07   3.47e-25
  1.4403e+07   2.91e-25
  1.4942e+07   2.40e-25
  1.5501e+07   1.96e-25
  1.6081e+07   1.57e-25
  1.6683e+07   1.24e-25
  1.7308e+07   9.62e-26
  1.7956e+07   7.27e-26
  1.8628e+07   5.36e-26
  1.9325e+07   3.84e-26
  2.0049e+07   2.67e-26
  2.0799e+07   1.79e-26
  2.1578e+07   1.15e-26
  2.2386e+07   7.09e-27
  2.3224e+07   4.13e-27
  2.4093e+07   2.26e-27
  2.4995e+07   1.15e-27
  2.5930e+07   5.42e-28
  2.6901e+07   2.30e-28
  2.7908e+07   8.75e-29
  2.8953e+07   2.90e-29
  3.0037e+07   8.13e-30
  3.1161e+07   1.89e-30
  3.2327e+07   3.49e-31
  3.3537e+07   4.85e-32
  3.4793e+07   4.80e-33
  3.6095e+07   3.18e-34
  3.7446e+07   1.25e-35
  3.8848e+07   2.61e-37
  4.0302e+07   2.52e-39
  4.1811e+07   8.90e-42
  4.3376e+07   8.82e-45
  4.5000e+07   1.82e-48
