#  E [MeV]   Flux [# cm^{-2} s^{-1}  MeV^{-1}]
  3.0000e+04   4.97e-20
  3.0943e+04   4.80e-20
  3.1916e+04   4.63e-20
  3.2920e+04   4.47e-20
  3.3955e+04   4.31e-20
  3.5023e+04   4.16e-20
  3.6124e+04   4.01e-20
  3.7260e+04   3.87e-20
  3.8432e+04   3.73e-20
  3.9640e+04   3.60e-20
  4.0887e+04   3.47e-20
  4.2172e+04   3.35e-20
  4.3499e+04   3.22e-20
  4.4866e+04   3.11e-20
  4.6277e+04   2.99e-20
  4.7732e+04   2.88e-20
  4.9233e+04   2.77e-20
  5.0781e+04   2.67e-20
  5.2378e+04   2.57e-20
  5.4025e+04   2.47e-20
  5.5724e+04   2.38e-20
  5.7476e+04   2.29e-20
  5.9284e+04   2.20e-20
  6.1148e+04   2.12e-20
  6.3071e+04   2.03e-20
  6.5054e+04   1.95e-20
  6.7100e+04   1.88e-20
  6.9210e+04   1.80e-20
  7.1386e+04   1.73e-20
  7.3631e+04   1.66e-20
  7.5946e+04   1.59e-20
  7.8334e+04   1.53e-20
  8.0797e+04   1.47e-20
  8.3338e+04   1.41e-20
  8.5959e+04   1.35e-20
  8.8662e+04   1.29e-20
  9.1450e+04   1.24e-20
  9.4325e+04   1.18e-20
  9.7291e+04   1.13e-20
  1.0035e+05   1.08e-20
  1.0351e+05   1.04e-20
  1.0676e+05   9.92e-21
  1.1012e+05   9.48e-21
  1.1358e+05   9.06e-21
  1.1715e+05   8.66e-21
  1.2084e+05   8.27e-21
  1.2464e+05   7.89e-21
  1.2856e+05   7.53e-21
  1.3260e+05   7.18e-21
  1.3677e+05   6.85e-21
  1.4107e+05   6.53e-21
  1.4550e+05   6.22e-21
  1.5008e+05   5.92e-21
  1.5480e+05   5.64e-21
  1.5967e+05   5.36e-21
  1.6469e+05   5.10e-21
  1.6987e+05   4.85e-21
  1.7521e+05   4.60e-21
  1.8072e+05   4.37e-21
  1.8640e+05   4.15e-21
  1.9226e+05   3.94e-21
  1.9831e+05   3.73e-21
  2.0454e+05   3.53e-21
  2.1097e+05   3.35e-21
  2.1761e+05   3.17e-21
  2.2445e+05   3.00e-21
  2.3151e+05   2.83e-21
  2.3879e+05   2.68e-21
  2.4630e+05   2.53e-21
  2.5404e+05   2.38e-21
  2.6203e+05   2.25e-21
  2.7027e+05   2.12e-21
  2.7877e+05   1.99e-21
  2.8753e+05   1.88e-21
  2.9657e+05   1.76e-21
  3.0590e+05   1.66e-21
  3.1552e+05   1.56e-21
  3.2544e+05   1.46e-21
  3.3567e+05   1.37e-21
  3.4623e+05   1.28e-21
  3.5712e+05   1.20e-21
  3.6835e+05   1.12e-21
  3.7993e+05   1.05e-21
  3.9188e+05   9.78e-22
  4.0420e+05   9.12e-22
  4.1691e+05   8.49e-22
  4.3002e+05   7.91e-22
  4.4354e+05   7.36e-22
  4.5749e+05   6.84e-22
  4.7187e+05   6.35e-22
  4.8671e+05   5.90e-22
  5.0202e+05   5.47e-22
  5.1780e+05   5.06e-22
  5.3409e+05   4.69e-22
  5.5088e+05   4.34e-22
  5.6820e+05   4.01e-22
  5.8607e+05   3.70e-22
  6.0450e+05   3.42e-22
  6.2351e+05   3.16e-22
  6.4311e+05   2.91e-22
  6.6334e+05   2.68e-22
  6.8419e+05   2.47e-22
  7.0571e+05   2.27e-22
  7.2790e+05   2.09e-22
  7.5079e+05   1.92e-22
  7.7440e+05   1.77e-22
  7.9875e+05   1.62e-22
  8.2387e+05   1.49e-22
  8.4977e+05   1.37e-22
  8.7649e+05   1.26e-22
  9.0405e+05   1.15e-22
  9.3248e+05   1.06e-22
  9.6180e+05   9.69e-23
  9.9205e+05   8.88e-23
  1.0232e+06   8.13e-23
  1.0554e+06   7.45e-23
  1.0886e+06   6.83e-23
  1.1228e+06   6.25e-23
  1.1581e+06   5.72e-23
  1.1946e+06   5.24e-23
  1.2321e+06   4.80e-23
  1.2709e+06   4.39e-23
  1.3108e+06   4.01e-23
  1.3521e+06   3.68e-23
  1.3946e+06   3.37e-23
  1.4384e+06   3.08e-23
  1.4837e+06   2.81e-23
  1.5303e+06   2.57e-23
  1.5784e+06   2.35e-23
  1.6281e+06   2.15e-23
  1.6793e+06   1.96e-23
  1.7321e+06   1.79e-23
  1.7865e+06   1.64e-23
  1.8427e+06   1.49e-23
  1.9006e+06   1.36e-23
  1.9604e+06   1.24e-23
  2.0221e+06   1.13e-23
  2.0856e+06   1.03e-23
  2.1512e+06   9.42e-24
  2.2189e+06   8.58e-24
  2.2886e+06   7.80e-24
  2.3606e+06   7.09e-24
  2.4348e+06   6.46e-24
  2.5114e+06   5.87e-24
  2.5904e+06   5.32e-24
  2.6718e+06   4.83e-24
  2.7558e+06   4.39e-24
  2.8425e+06   3.98e-24
  2.9319e+06   3.59e-24
  3.0241e+06   3.26e-24
  3.1192e+06   2.95e-24
  3.2173e+06   2.66e-24
  3.3184e+06   2.39e-24
  3.4228e+06   2.17e-24
  3.5304e+06   1.96e-24
  3.6414e+06   1.76e-24
  3.7559e+06   1.58e-24
  3.8740e+06   1.43e-24
  3.9958e+06   1.28e-24
  4.1215e+06   1.15e-24
  4.2511e+06   1.03e-24
  4.3848e+06   9.30e-25
  4.5227e+06   8.34e-25
  4.6649e+06   7.44e-25
  4.8116e+06   6.71e-25
  4.9629e+06   6.02e-25
  5.1189e+06   5.38e-25
  5.2799e+06   4.81e-25
  5.4459e+06   4.34e-25
  5.6171e+06   3.91e-25
  5.7938e+06   3.50e-25
  5.9760e+06   3.15e-25
  6.1639e+06   2.84e-25
  6.3577e+06   2.56e-25
  6.5576e+06   2.29e-25
  6.7638e+06   2.08e-25
  6.9765e+06   1.88e-25
  7.1959e+06   1.70e-25
  7.4222e+06   1.53e-25
  7.6556e+06   1.40e-25
  7.8963e+06   1.27e-25
  8.1446e+06   1.14e-25
  8.4007e+06   1.04e-25
  8.6649e+06   9.55e-26
  8.9373e+06   8.72e-26
  9.2184e+06   7.92e-26
  9.5082e+06   7.32e-26
  9.8072e+06   6.77e-26
  1.0116e+07   6.20e-26
  1.0434e+07   5.63e-26
  1.0762e+07   5.43e-26
  1.1100e+07   5.12e-26
  1.1449e+07   4.75e-26
  1.1809e+07   4.55e-26
  1.2181e+07   4.71e-26
  1.2564e+07   4.62e-26
  1.2959e+07   4.34e-26
  1.3366e+07   3.76e-26
  1.3786e+07   3.09e-26
  1.4220e+07   2.49e-26
