#  E [MeV]   Flux [# cm^{-2} s^{-1}  MeV^{-1}]
  3.0000e+04   2.52e-26
  3.1051e+04   2.43e-26
  3.2139e+04   2.34e-26
  3.3266e+04   2.25e-26
  3.4432e+04   2.17e-26
  3.5638e+04   2.09e-26
  3.6887e+04   2.01e-26
  3.8180e+04   1.93e-26
  3.9518e+04   1.86e-26
  4.0903e+04   1.79e-26
  4.2336e+04   1.72e-26
  4.3820e+04   1.65e-26
  4.5355e+04   1.59e-26
  4.6945e+04   1.53e-26
  4.8590e+04   1.47e-26
  5.0293e+04   1.41e-26
  5.2055e+04   1.36e-26
  5.3879e+04   1.30e-26
  5.5767e+04   1.25e-26
  5.7722e+04   1.20e-26
  5.9745e+04   1.15e-26
  6.1838e+04   1.11e-26
  6.4005e+04   1.06e-26
  6.6248e+04   1.02e-26
  6.8570e+04   9.79e-27
  7.0973e+04   9.39e-27
  7.3460e+04   9.01e-27
  7.6034e+04   8.65e-27
  7.8699e+04   8.29e-27
  8.1457e+04   7.95e-27
  8.4311e+04   7.63e-27
  8.7266e+04   7.31e-27
  9.0324e+04   7.01e-27
  9.3490e+04   6.72e-27
  9.6766e+04   6.45e-27
  1.0016e+05   6.18e-27
  1.0367e+05   5.92e-27
  1.0730e+05   5.68e-27
  1.1106e+05   5.44e-27
  1.1495e+05   5.21e-27
  1.1898e+05   4.99e-27
  1.2315e+05   4.79e-27
  1.2747e+05   4.58e-27
  1.3193e+05   4.39e-27
  1.3656e+05   4.21e-27
  1.4134e+05   4.03e-27
  1.4629e+05   3.86e-27
  1.5142e+05   3.70e-27
  1.5673e+05   3.55e-27
  1.6222e+05   3.40e-27
  1.6790e+05   3.25e-27
  1.7379e+05   3.12e-27
  1.7988e+05   2.99e-27
  1.8618e+05   2.86e-27
  1.9271e+05   2.74e-27
  1.9946e+05   2.63e-27
  2.0645e+05   2.52e-27
  2.1369e+05   2.41e-27
  2.2117e+05   2.31e-27
  2.2892e+05   2.21e-27
  2.3695e+05   2.12e-27
  2.4525e+05   2.03e-27
  2.5385e+05   1.95e-27
  2.6274e+05   1.86e-27
  2.7195e+05   1.79e-27
  2.8148e+05   1.71e-27
  2.9134e+05   1.64e-27
  3.0155e+05   1.57e-27
  3.1212e+05   1.50e-27
  3.2306e+05   1.44e-27
  3.3438e+05   1.38e-27
  3.4610e+05   1.32e-27
  3.5823e+05   1.27e-27
  3.7078e+05   1.21e-27
  3.8377e+05   1.16e-27
  3.9722e+05   1.11e-27
  4.1114e+05   1.07e-27
  4.2555e+05   1.02e-27
  4.4046e+05   9.78e-28
  4.5590e+05   9.37e-28
  4.7188e+05   8.96e-28
  4.8841e+05   8.59e-28
  5.0553e+05   8.22e-28
  5.2324e+05   7.87e-28
  5.4158e+05   7.54e-28
  5.6056e+05   7.22e-28
  5.8020e+05   6.91e-28
  6.0054e+05   6.61e-28
  6.2158e+05   6.34e-28
  6.4337e+05   6.07e-28
  6.6591e+05   5.81e-28
  6.8925e+05   5.57e-28
  7.1340e+05   5.33e-28
  7.3840e+05   5.11e-28
  7.6428e+05   4.90e-28
  7.9106e+05   4.69e-28
  8.1878e+05   4.50e-28
  8.4748e+05   4.31e-28
  8.7718e+05   4.14e-28
  9.0792e+05   3.97e-28
  9.3973e+05   3.81e-28
  9.7267e+05   3.66e-28
  1.0068e+06   3.51e-28
  1.0420e+06   3.37e-28
  1.0785e+06   3.24e-28
  1.1163e+06   3.12e-28
  1.1555e+06   3.00e-28
  1.1960e+06   2.88e-28
  1.2379e+06   2.78e-28
  1.2813e+06   2.67e-28
  1.3262e+06   2.57e-28
  1.3726e+06   2.48e-28
  1.4207e+06   2.39e-28
  1.4705e+06   2.30e-28
  1.5220e+06   2.22e-28
  1.5754e+06   2.14e-28
  1.6306e+06   2.06e-28
  1.6877e+06   1.99e-28
  1.7469e+06   1.92e-28
  1.8081e+06   1.85e-28
  1.8715e+06   1.79e-28
  1.9370e+06   1.72e-28
  2.0049e+06   1.66e-28
  2.0752e+06   1.60e-28
  2.1479e+06   1.54e-28
  2.2232e+06   1.49e-28
  2.3011e+06   1.43e-28
  2.3817e+06   1.38e-28
  2.4652e+06   1.33e-28
  2.5516e+06   1.28e-28
  2.6410e+06   1.23e-28
  2.7336e+06   1.18e-28
  2.8294e+06   1.14e-28
  2.9285e+06   1.09e-28
  3.0311e+06   1.05e-28
  3.1374e+06   1.00e-28
  3.2473e+06   9.60e-29
  3.3611e+06   9.19e-29
  3.4789e+06   8.77e-29
  3.6008e+06   8.36e-29
  3.7270e+06   7.97e-29
  3.8576e+06   7.58e-29
  3.9928e+06   7.20e-29
  4.1327e+06   6.83e-29
  4.2775e+06   6.47e-29
  4.4274e+06   6.11e-29
  4.5826e+06   5.77e-29
  4.7432e+06   5.43e-29
  4.9094e+06   5.10e-29
  5.0815e+06   4.78e-29
  5.2595e+06   4.47e-29
  5.4438e+06   4.17e-29
  5.6346e+06   3.87e-29
  5.8321e+06   3.59e-29
  6.0365e+06   3.32e-29
  6.2480e+06   3.05e-29
  6.4670e+06   2.80e-29
  6.6936e+06   2.56e-29
  6.9282e+06   2.33e-29
  7.1709e+06   2.11e-29
  7.4222e+06   1.91e-29
  7.6823e+06   1.71e-29
  7.9516e+06   1.53e-29
  8.2302e+06   1.36e-29
  8.5186e+06   1.20e-29
  8.8172e+06   1.06e-29
  9.1262e+06   9.22e-30
  9.4460e+06   7.99e-30
  9.7770e+06   6.87e-30
  1.0120e+07   5.86e-30
  1.0474e+07   4.95e-30
  1.0841e+07   4.14e-30
  1.1221e+07   3.42e-30
  1.1614e+07   2.80e-30
  1.2022e+07   2.26e-30
  1.2443e+07   1.80e-30
  1.2879e+07   1.41e-30
  1.3330e+07   1.09e-30
  1.3797e+07   8.27e-31
  1.4281e+07   6.16e-31
  1.4781e+07   4.48e-31
  1.5299e+07   3.20e-31
  1.5835e+07   2.23e-31
  1.6390e+07   1.51e-31
  1.6965e+07   9.85e-32
  1.7559e+07   6.26e-32
  1.8175e+07   3.81e-32
  1.8812e+07   2.21e-32
  1.9471e+07   1.24e-32
  2.0153e+07   6.56e-33
  2.0859e+07   3.24e-33
  2.1590e+07   1.51e-33
  2.2347e+07   6.60e-34
  2.3130e+07   2.61e-34
  2.3941e+07   9.36e-35
  2.4780e+07   3.08e-35
  2.5648e+07   8.83e-36
  2.6547e+07   2.15e-36
  2.7477e+07   4.60e-37
  2.8440e+07   8.04e-38
