#  E [MeV]   Flux [# cm^{-2} s^{-1}  MeV^{-1}]
  3.0000e+04   9.25e-25
  3.0696e+04   8.96e-25
  3.1408e+04   8.67e-25
  3.2137e+04   8.40e-25
  3.2883e+04   8.13e-25
  3.3646e+04   7.87e-25
  3.4426e+04   7.61e-25
  3.5225e+04   7.37e-25
  3.6042e+04   7.13e-25
  3.6878e+04   6.90e-25
  3.7734e+04   6.68e-25
  3.8609e+04   6.46e-25
  3.9505e+04   6.25e-25
  4.0422e+04   6.05e-25
  4.1360e+04   5.86e-25
  4.2319e+04   5.66e-25
  4.3301e+04   5.48e-25
  4.4306e+04   5.30e-25
  4.5334e+04   5.13e-25
  4.6386e+04   4.96e-25
  4.7462e+04   4.80e-25
  4.8563e+04   4.64e-25
  4.9690e+04   4.49e-25
  5.0843e+04   4.34e-25
  5.2022e+04   4.20e-25
  5.3229e+04   4.06e-25
  5.4464e+04   3.93e-25
  5.5728e+04   3.80e-25
  5.7021e+04   3.68e-25
  5.8344e+04   3.56e-25
  5.9697e+04   3.44e-25
  6.1083e+04   3.33e-25
  6.2500e+04   3.22e-25
  6.3950e+04   3.11e-25
  6.5434e+04   3.01e-25
  6.6952e+04   2.91e-25
  6.8505e+04   2.81e-25
  7.0095e+04   2.72e-25
  7.1721e+04   2.63e-25
  7.3385e+04   2.55e-25
  7.5088e+04   2.46e-25
  7.6830e+04   2.38e-25
  7.8612e+04   2.31e-25
  8.0436e+04   2.23e-25
  8.2302e+04   2.16e-25
  8.4212e+04   2.09e-25
  8.6166e+04   2.02e-25
  8.8165e+04   1.95e-25
  9.0210e+04   1.89e-25
  9.2304e+04   1.83e-25
  9.4445e+04   1.77e-25
  9.6636e+04   1.71e-25
  9.8878e+04   1.66e-25
  1.0117e+05   1.60e-25
  1.0352e+05   1.55e-25
  1.0592e+05   1.50e-25
  1.0838e+05   1.45e-25
  1.1089e+05   1.41e-25
  1.1347e+05   1.36e-25
  1.1610e+05   1.32e-25
  1.1879e+05   1.27e-25
  1.2155e+05   1.23e-25
  1.2437e+05   1.19e-25
  1.2725e+05   1.15e-25
  1.3021e+05   1.12e-25
  1.3323e+05   1.08e-25
  1.3632e+05   1.05e-25
  1.3948e+05   1.01e-25
  1.4272e+05   9.81e-26
  1.4603e+05   9.50e-26
  1.4942e+05   9.20e-26
  1.5288e+05   8.90e-26
  1.5643e+05   8.62e-26
  1.6006e+05   8.35e-26
  1.6377e+05   8.08e-26
  1.6757e+05   7.83e-26
  1.7146e+05   7.58e-26
  1.7544e+05   7.34e-26
  1.7951e+05   7.11e-26
  1.8368e+05   6.89e-26
  1.8794e+05   6.67e-26
  1.9230e+05   6.46e-26
  1.9676e+05   6.25e-26
  2.0132e+05   6.06e-26
  2.0600e+05   5.87e-26
  2.1078e+05   5.68e-26
  2.1567e+05   5.50e-26
  2.2067e+05   5.33e-26
  2.2579e+05   5.16e-26
  2.3103e+05   5.00e-26
  2.3639e+05   4.84e-26
  2.4187e+05   4.69e-26
  2.4748e+05   4.54e-26
  2.5323e+05   4.40e-26
  2.5910e+05   4.26e-26
  2.6511e+05   4.12e-26
  2.7126e+05   3.99e-26
  2.7756e+05   3.87e-26
  2.8400e+05   3.74e-26
  2.9059e+05   3.63e-26
  2.9733e+05   3.51e-26
  3.0423e+05   3.40e-26
  3.1129e+05   3.29e-26
  3.1851e+05   3.19e-26
  3.2590e+05   3.08e-26
  3.3346e+05   2.98e-26
  3.4120e+05   2.89e-26
  3.4911e+05   2.80e-26
  3.5721e+05   2.71e-26
  3.6550e+05   2.62e-26
  3.7398e+05   2.53e-26
  3.8266e+05   2.45e-26
  3.9154e+05   2.37e-26
  4.0062e+05   2.29e-26
  4.0991e+05   2.22e-26
  4.1943e+05   2.14e-26
  4.2916e+05   2.07e-26
  4.3911e+05   2.00e-26
  4.4930e+05   1.94e-26
  4.5973e+05   1.87e-26
  4.7039e+05   1.81e-26
  4.8131e+05   1.75e-26
  4.9247e+05   1.69e-26
  5.0390e+05   1.63e-26
  5.1559e+05   1.58e-26
  5.2755e+05   1.52e-26
  5.3979e+05   1.47e-26
  5.5232e+05   1.42e-26
  5.6513e+05   1.37e-26
  5.7824e+05   1.33e-26
  5.9166e+05   1.28e-26
  6.0539e+05   1.24e-26
  6.1943e+05   1.19e-26
  6.3381e+05   1.15e-26
  6.4851e+05   1.11e-26
  6.6356e+05   1.07e-26
  6.7895e+05   1.03e-26
  6.9471e+05   9.96e-27
  7.1082e+05   9.61e-27
  7.2732e+05   9.27e-27
  7.4419e+05   8.93e-27
  7.6146e+05   8.61e-27
  7.7912e+05   8.31e-27
  7.9720e+05   8.01e-27
  8.1570e+05   7.72e-27
  8.3462e+05   7.44e-27
  8.5399e+05   7.17e-27
  8.7380e+05   6.92e-27
  8.9407e+05   6.66e-27
  9.1482e+05   6.42e-27
  9.3604e+05   6.19e-27
  9.5776e+05   5.97e-27
  9.7998e+05   5.75e-27
  1.0027e+06   5.54e-27
  1.0260e+06   5.34e-27
  1.0498e+06   5.14e-27
  1.0741e+06   4.95e-27
  1.0991e+06   4.77e-27
  1.1246e+06   4.59e-27
  1.1507e+06   4.42e-27
  1.1774e+06   4.26e-27
  1.2047e+06   4.10e-27
  1.2326e+06   3.95e-27
  1.2612e+06   3.80e-27
  1.2905e+06   3.66e-27
  1.3204e+06   3.52e-27
  1.3511e+06   3.39e-27
  1.3824e+06   3.27e-27
  1.4145e+06   3.15e-27
  1.4473e+06   3.03e-27
  1.4809e+06   2.92e-27
  1.5152e+06   2.81e-27
  1.5504e+06   2.70e-27
  1.5864e+06   2.60e-27
  1.6232e+06   2.51e-27
  1.6608e+06   2.41e-27
  1.6994e+06   2.32e-27
  1.7388e+06   2.24e-27
  1.7791e+06   2.15e-27
  1.8204e+06   2.07e-27
  1.8626e+06   2.00e-27
  1.9059e+06   1.92e-27
  1.9501e+06   1.85e-27
  1.9953e+06   1.78e-27
  2.0416e+06   1.71e-27
  2.0890e+06   1.64e-27
  2.1375e+06   1.58e-27
  2.1870e+06   1.52e-27
  2.2378e+06   1.46e-27
  2.2897e+06   1.40e-27
  2.3428e+06   1.35e-27
  2.3972e+06   1.30e-27
  2.4528e+06   1.25e-27
  2.5097e+06   1.20e-27
  2.5680e+06   1.15e-27
  2.6275e+06   1.10e-27
  2.6885e+06   1.06e-27
  2.7509e+06   1.01e-27
  2.8147e+06   9.78e-28
  2.8800e+06   9.44e-28
