#  E [MeV]   Flux [# cm^{-2} s^{-1}  MeV^{-1}]
  3.0000e+04   1.10e-19
  3.0943e+04   1.06e-19
  3.1916e+04   1.02e-19
  3.2920e+04   9.83e-20
  3.3955e+04   9.47e-20
  3.5023e+04   9.12e-20
  3.6124e+04   8.77e-20
  3.7260e+04   8.44e-20
  3.8432e+04   8.12e-20
  3.9640e+04   7.81e-20
  4.0887e+04   7.51e-20
  4.2172e+04   7.22e-20
  4.3499e+04   6.95e-20
  4.4866e+04   6.68e-20
  4.6277e+04   6.42e-20
  4.7732e+04   6.16e-20
  4.9233e+04   5.92e-20
  5.0781e+04   5.69e-20
  5.2378e+04   5.46e-20
  5.4025e+04   5.24e-20
  5.5724e+04   5.03e-20
  5.7476e+04   4.83e-20
  5.9284e+04   4.64e-20
  6.1148e+04   4.45e-20
  6.3071e+04   4.27e-20
  6.5054e+04   4.09e-20
  6.7100e+04   3.92e-20
  6.9210e+04   3.76e-20
  7.1386e+04   3.61e-20
  7.3631e+04   3.46e-20
  7.5946e+04   3.31e-20
  7.8334e+04   3.18e-20
  8.0797e+04   3.04e-20
  8.3338e+04   2.91e-20
  8.5959e+04   2.79e-20
  8.8662e+04   2.67e-20
  9.1450e+04   2.56e-20
  9.4325e+04   2.45e-20
  9.7291e+04   2.34e-20
  1.0035e+05   2.24e-20
  1.0351e+05   2.15e-20
  1.0676e+05   2.05e-20
  1.1012e+05   1.96e-20
  1.1358e+05   1.88e-20
  1.1715e+05   1.79e-20
  1.2084e+05   1.72e-20
  1.2464e+05   1.64e-20
  1.2856e+05   1.57e-20
  1.3260e+05   1.50e-20
  1.3677e+05   1.43e-20
  1.4107e+05   1.37e-20
  1.4550e+05   1.31e-20
  1.5008e+05   1.25e-20
  1.5480e+05   1.19e-20
  1.5967e+05   1.14e-20
  1.6469e+05   1.09e-20
  1.6987e+05   1.04e-20
  1.7521e+05   9.91e-21
  1.8072e+05   9.46e-21
  1.8640e+05   9.03e-21
  1.9226e+05   8.61e-21
  1.9831e+05   8.22e-21
  2.0454e+05   7.84e-21
  2.1097e+05   7.49e-21
  2.1761e+05   7.14e-21
  2.2445e+05   6.81e-21
  2.3151e+05   6.50e-21
  2.3879e+05   6.20e-21
  2.4630e+05   5.92e-21
  2.5404e+05   5.64e-21
  2.6203e+05   5.39e-21
  2.7027e+05   5.14e-21
  2.7877e+05   4.90e-21
  2.8753e+05   4.67e-21
  2.9657e+05   4.45e-21
  3.0590e+05   4.25e-21
  3.1552e+05   4.05e-21
  3.2544e+05   3.86e-21
  3.3567e+05   3.68e-21
  3.4623e+05   3.51e-21
  3.5712e+05   3.35e-21
  3.6835e+05   3.19e-21
  3.7993e+05   3.04e-21
  3.9188e+05   2.90e-21
  4.0420e+05   2.77e-21
  4.1691e+05   2.64e-21
  4.3002e+05   2.51e-21
  4.4354e+05   2.40e-21
  4.5749e+05   2.29e-21
  4.7187e+05   2.18e-21
  4.8671e+05   2.08e-21
  5.0202e+05   1.98e-21
  5.1780e+05   1.89e-21
  5.3409e+05   1.80e-21
  5.5088e+05   1.72e-21
  5.6820e+05   1.64e-21
  5.8607e+05   1.57e-21
  6.0450e+05   1.49e-21
  6.2351e+05   1.42e-21
  6.4311e+05   1.36e-21
  6.6334e+05   1.30e-21
  6.8419e+05   1.24e-21
  7.0571e+05   1.18e-21
  7.2790e+05   1.13e-21
  7.5079e+05   1.08e-21
  7.7440e+05   1.03e-21
  7.9875e+05   9.84e-22
  8.2387e+05   9.40e-22
  8.4977e+05   8.99e-22
  8.7649e+05   8.59e-22
  9.0405e+05   8.21e-22
  9.3248e+05   7.85e-22
  9.6180e+05   7.51e-22
  9.9205e+05   7.18e-22
  1.0232e+06   6.87e-22
  1.0554e+06   6.57e-22
  1.0886e+06   6.29e-22
  1.1228e+06   6.02e-22
  1.1581e+06   5.76e-22
  1.1946e+06   5.52e-22
  1.2321e+06   5.28e-22
  1.2709e+06   5.06e-22
  1.3108e+06   4.85e-22
  1.3521e+06   4.64e-22
  1.3946e+06   4.45e-22
  1.4384e+06   4.26e-22
  1.4837e+06   4.09e-22
  1.5303e+06   3.92e-22
  1.5784e+06   3.75e-22
  1.6281e+06   3.60e-22
  1.6793e+06   3.45e-22
  1.7321e+06   3.31e-22
  1.7865e+06   3.18e-22
  1.8427e+06   3.05e-22
  1.9006e+06   2.93e-22
  1.9604e+06   2.81e-22
  2.0221e+06   2.69e-22
  2.0856e+06   2.58e-22
  2.1512e+06   2.48e-22
  2.2189e+06   2.38e-22
  2.2886e+06   2.29e-22
  2.3606e+06   2.19e-22
  2.4348e+06   2.11e-22
  2.5114e+06   2.02e-22
  2.5904e+06   1.94e-22
  2.6718e+06   1.86e-22
  2.7558e+06   1.79e-22
  2.8425e+06   1.72e-22
  2.9319e+06   1.65e-22
  3.0241e+06   1.58e-22
  3.1192e+06   1.52e-22
  3.2173e+06   1.46e-22
  3.3184e+06   1.40e-22
  3.4228e+06   1.35e-22
  3.5304e+06   1.29e-22
  3.6414e+06   1.24e-22
  3.7559e+06   1.19e-22
  3.8740e+06   1.14e-22
  3.9958e+06   1.10e-22
  4.1215e+06   1.05e-22
  4.2511e+06   1.01e-22
  4.3848e+06   9.65e-23
  4.5227e+06   9.25e-23
  4.6649e+06   8.86e-23
  4.8116e+06   8.49e-23
  4.9629e+06   8.13e-23
  5.1189e+06   7.78e-23
  5.2799e+06   7.45e-23
  5.4459e+06   7.13e-23
  5.6171e+06   6.82e-23
  5.7938e+06   6.52e-23
  5.9760e+06   6.23e-23
  6.1639e+06   5.96e-23
  6.3577e+06   5.69e-23
  6.5576e+06   5.43e-23
  6.7638e+06   5.18e-23
  6.9765e+06   4.95e-23
  7.1959e+06   4.72e-23
  7.4222e+06   4.50e-23
  7.6556e+06   4.28e-23
  7.8963e+06   4.08e-23
  8.1446e+06   3.89e-23
  8.4007e+06   3.70e-23
  8.6649e+06   3.52e-23
  8.9373e+06   3.34e-23
  9.2184e+06   3.18e-23
  9.5082e+06   3.01e-23
  9.8072e+06   2.86e-23
  1.0116e+07   2.71e-23
  1.0434e+07   2.57e-23
  1.0762e+07   2.43e-23
  1.1100e+07   2.30e-23
  1.1449e+07   2.18e-23
  1.1809e+07   2.06e-23
  1.2181e+07   1.94e-23
  1.2564e+07   1.83e-23
  1.2959e+07   1.72e-23
  1.3366e+07   1.61e-23
  1.3786e+07   1.51e-23
  1.4220e+07   1.42e-23
