#  E [MeV]   Flux [# cm^{-2} s^{-1}  MeV^{-1}]
  3.0000e+04   5.19e-26
  3.1232e+04   4.96e-26
  3.2514e+04   4.75e-26
  3.3849e+04   4.54e-26
  3.5238e+04   4.34e-26
  3.6685e+04   4.15e-26
  3.8191e+04   3.97e-26
  3.9759e+04   3.79e-26
  4.1391e+04   3.63e-26
  4.3090e+04   3.47e-26
  4.4859e+04   3.31e-26
  4.6701e+04   3.17e-26
  4.8618e+04   3.02e-26
  5.0614e+04   2.89e-26
  5.2692e+04   2.76e-26
  5.4855e+04   2.64e-26
  5.7107e+04   2.52e-26
  5.9451e+04   2.41e-26
  6.1892e+04   2.30e-26
  6.4433e+04   2.20e-26
  6.7078e+04   2.10e-26
  6.9832e+04   2.00e-26
  7.2699e+04   1.91e-26
  7.5683e+04   1.82e-26
  7.8790e+04   1.74e-26
  8.2025e+04   1.66e-26
  8.5392e+04   1.59e-26
  8.8898e+04   1.51e-26
  9.2547e+04   1.44e-26
  9.6347e+04   1.38e-26
  1.0030e+05   1.31e-26
  1.0442e+05   1.25e-26
  1.0871e+05   1.19e-26
  1.1317e+05   1.14e-26
  1.1782e+05   1.08e-26
  1.2265e+05   1.03e-26
  1.2769e+05   9.83e-27
  1.3293e+05   9.36e-27
  1.3839e+05   8.91e-27
  1.4407e+05   8.48e-27
  1.4998e+05   8.07e-27
  1.5614e+05   7.67e-27
  1.6255e+05   7.30e-27
  1.6922e+05   6.93e-27
  1.7617e+05   6.59e-27
  1.8340e+05   6.25e-27
  1.9093e+05   5.94e-27
  1.9877e+05   5.63e-27
  2.0693e+05   5.34e-27
  2.1543e+05   5.06e-27
  2.2427e+05   4.80e-27
  2.3348e+05   4.54e-27
  2.4306e+05   4.30e-27
  2.5304e+05   4.06e-27
  2.6343e+05   3.84e-27
  2.7424e+05   3.63e-27
  2.8550e+05   3.42e-27
  2.9722e+05   3.23e-27
  3.0942e+05   3.04e-27
  3.2213e+05   2.86e-27
  3.3535e+05   2.70e-27
  3.4912e+05   2.53e-27
  3.6345e+05   2.38e-27
  3.7837e+05   2.23e-27
  3.9390e+05   2.09e-27
  4.1008e+05   1.96e-27
  4.2691e+05   1.84e-27
  4.4444e+05   1.72e-27
  4.6268e+05   1.60e-27
  4.8168e+05   1.50e-27
  5.0145e+05   1.40e-27
  5.2204e+05   1.30e-27
  5.4347e+05   1.21e-27
  5.6578e+05   1.13e-27
  5.8901e+05   1.05e-27
  6.1319e+05   9.76e-28
  6.3836e+05   9.06e-28
  6.6457e+05   8.40e-28
  6.9185e+05   7.79e-28
  7.2025e+05   7.22e-28
  7.4982e+05   6.69e-28
  7.8061e+05   6.20e-28
  8.1265e+05   5.73e-28
  8.4601e+05   5.30e-28
  8.8075e+05   4.91e-28
  9.1690e+05   4.54e-28
  9.5455e+05   4.19e-28
  9.9373e+05   3.88e-28
  1.0345e+06   3.58e-28
  1.0770e+06   3.31e-28
  1.1212e+06   3.06e-28
  1.1672e+06   2.82e-28
  1.2152e+06   2.61e-28
  1.2650e+06   2.41e-28
  1.3170e+06   2.22e-28
  1.3711e+06   2.05e-28
  1.4273e+06   1.90e-28
  1.4859e+06   1.75e-28
  1.5469e+06   1.62e-28
  1.6104e+06   1.49e-28
  1.6766e+06   1.38e-28
  1.7454e+06   1.27e-28
  1.8170e+06   1.18e-28
  1.8916e+06   1.08e-28
  1.9693e+06   1.00e-28
  2.0501e+06   9.23e-29
  2.1343e+06   8.50e-29
  2.2219e+06   7.83e-29
  2.3131e+06   7.21e-29
  2.4081e+06   6.64e-29
  2.5070e+06   6.11e-29
  2.6099e+06   5.61e-29
  2.7170e+06   5.15e-29
  2.8286e+06   4.73e-29
  2.9447e+06   4.33e-29
  3.0656e+06   3.97e-29
  3.1914e+06   3.63e-29
  3.3225e+06   3.32e-29
  3.4589e+06   3.03e-29
  3.6008e+06   2.76e-29
  3.7487e+06   2.51e-29
  3.9026e+06   2.29e-29
  4.0628e+06   2.08e-29
  4.2296e+06   1.88e-29
  4.4032e+06   1.70e-29
  4.5840e+06   1.53e-29
  4.7722e+06   1.38e-29
  4.9681e+06   1.24e-29
  5.1720e+06   1.11e-29
  5.3844e+06   9.91e-30
  5.6054e+06   8.84e-30
  5.8355e+06   7.86e-30
  6.0751e+06   6.95e-30
  6.3245e+06   6.15e-30
  6.5841e+06   5.41e-30
  6.8544e+06   4.74e-30
  7.1358e+06   4.14e-30
  7.4288e+06   3.59e-30
  7.7338e+06   3.11e-30
  8.0513e+06   2.68e-30
  8.3818e+06   2.29e-30
  8.7259e+06   1.94e-30
  9.0841e+06   1.64e-30
  9.4571e+06   1.37e-30
  9.8453e+06   1.14e-30
  1.0249e+07   9.44e-31
  1.0670e+07   7.68e-31
  1.1108e+07   6.23e-31
  1.1564e+07   4.97e-31
  1.2039e+07   3.91e-31
  1.2533e+07   3.05e-31
  1.3048e+07   2.34e-31
  1.3584e+07   1.75e-31
  1.4141e+07   1.30e-31
  1.4722e+07   9.37e-32
  1.5326e+07   6.59e-32
  1.5955e+07   4.53e-32
  1.6610e+07   3.00e-32
  1.7292e+07   1.92e-32
  1.8002e+07   1.19e-32
  1.8741e+07   6.94e-33
  1.9511e+07   3.87e-33
  2.0312e+07   2.03e-33
  2.1145e+07   9.83e-34
  2.2013e+07   4.42e-34
  2.2917e+07   1.80e-34
  2.3858e+07   6.50e-35
  2.4837e+07   2.08e-35
  2.5857e+07   5.63e-36
  2.6919e+07   1.25e-36
  2.8024e+07   2.25e-37
  2.9174e+07   3.05e-38
  3.0372e+07   2.95e-39
  3.1619e+07   1.92e-40
  3.2917e+07   7.55e-42
  3.4268e+07   1.60e-43
  3.5675e+07   1.58e-45
  3.7140e+07   5.91e-48
  3.8664e+07   6.53e-51
  4.0252e+07   1.54e-54
  4.1904e+07   4.84e-59
  4.3624e+07   1.15e-64
  4.5415e+07   9.14e-72
  4.7280e+07   2.94e-72
  4.9221e+07   2.47e-72
  5.1241e+07   2.07e-72
  5.3345e+07   1.70e-72
  5.5535e+07   1.43e-72
  5.7815e+07   1.19e-72
  6.0188e+07   9.71e-73
  6.2659e+07   8.14e-73
  6.5232e+07   6.69e-73
  6.7910e+07   5.39e-73
  7.0698e+07   4.47e-73
  7.3600e+07   3.62e-73
  7.6621e+07   2.88e-73
  7.9767e+07   2.29e-73
  8.3042e+07   1.74e-73
  8.6451e+07   1.29e-73
  9.0000e+07   9.26e-74
