#  E [GeV]   # per interaction  [GeV^{-1}]
  3.0000e+01   2.19e-02
  3.1051e+01   2.11e-02
  3.2139e+01   2.03e-02
  3.3266e+01   1.95e-02
  3.4432e+01   1.87e-02
  3.5638e+01   1.80e-02
  3.6887e+01   1.73e-02
  3.8180e+01   1.66e-02
  3.9518e+01   1.60e-02
  4.0903e+01   1.53e-02
  4.2336e+01   1.47e-02
  4.3820e+01   1.41e-02
  4.5355e+01   1.36e-02
  4.6945e+01   1.30e-02
  4.8590e+01   1.25e-02
  5.0293e+01   1.20e-02
  5.2055e+01   1.15e-02
  5.3879e+01   1.10e-02
  5.5767e+01   1.05e-02
  5.7722e+01   1.01e-02
  5.9745e+01   9.68e-03
  6.1838e+01   9.26e-03
  6.4005e+01   8.87e-03
  6.6248e+01   8.49e-03
  6.8570e+01   8.12e-03
  7.0973e+01   7.77e-03
  7.3460e+01   7.43e-03
  7.6034e+01   7.10e-03
  7.8699e+01   6.79e-03
  8.1457e+01   6.48e-03
  8.4311e+01   6.19e-03
  8.7266e+01   5.91e-03
  9.0324e+01   5.64e-03
  9.3490e+01   5.39e-03
  9.6766e+01   5.14e-03
  1.0016e+02   4.90e-03
  1.0367e+02   4.67e-03
  1.0730e+02   4.45e-03
  1.1106e+02   4.24e-03
  1.1495e+02   4.04e-03
  1.1898e+02   3.84e-03
  1.2315e+02   3.66e-03
  1.2747e+02   3.48e-03
  1.3193e+02   3.31e-03
  1.3656e+02   3.15e-03
  1.4134e+02   2.99e-03
  1.4629e+02   2.84e-03
  1.5142e+02   2.70e-03
  1.5673e+02   2.56e-03
  1.6222e+02   2.43e-03
  1.6790e+02   2.30e-03
  1.7379e+02   2.18e-03
  1.7988e+02   2.07e-03
  1.8618e+02   1.95e-03
  1.9271e+02   1.85e-03
  1.9946e+02   1.75e-03
  2.0645e+02   1.65e-03
  2.1369e+02   1.56e-03
  2.2117e+02   1.47e-03
  2.2892e+02   1.39e-03
  2.3695e+02   1.31e-03
  2.4525e+02   1.23e-03
  2.5385e+02   1.16e-03
  2.6274e+02   1.09e-03
  2.7195e+02   1.03e-03
  2.8148e+02   9.64e-04
  2.9134e+02   9.04e-04
  3.0155e+02   8.48e-04
  3.1212e+02   7.95e-04
  3.2306e+02   7.44e-04
  3.3438e+02   6.96e-04
  3.4610e+02   6.51e-04
  3.5823e+02   6.08e-04
  3.7078e+02   5.67e-04
  3.8377e+02   5.29e-04
  3.9722e+02   4.93e-04
  4.1114e+02   4.59e-04
  4.2555e+02   4.27e-04
  4.4046e+02   3.96e-04
  4.5590e+02   3.68e-04
  4.7188e+02   3.42e-04
  4.8841e+02   3.17e-04
  5.0553e+02   2.94e-04
  5.2324e+02   2.72e-04
  5.4158e+02   2.52e-04
  5.6056e+02   2.33e-04
  5.8020e+02   2.15e-04
  6.0054e+02   1.99e-04
  6.2158e+02   1.84e-04
  6.4337e+02   1.70e-04
  6.6591e+02   1.57e-04
  6.8925e+02   1.45e-04
  7.1340e+02   1.34e-04
  7.3840e+02   1.24e-04
  7.6428e+02   1.14e-04
  7.9106e+02   1.05e-04
  8.1878e+02   9.72e-05
  8.4748e+02   8.98e-05
  8.7718e+02   8.30e-05
  9.0792e+02   7.67e-05
  9.3973e+02   7.10e-05
  9.7267e+02   6.57e-05
  1.0068e+03   6.08e-05
  1.0420e+03   5.63e-05
  1.0785e+03   5.22e-05
  1.1163e+03   4.85e-05
  1.1555e+03   4.50e-05
  1.1960e+03   4.18e-05
  1.2379e+03   3.89e-05
  1.2813e+03   3.62e-05
  1.3262e+03   3.37e-05
  1.3726e+03   3.14e-05
  1.4207e+03   2.93e-05
  1.4705e+03   2.74e-05
  1.5220e+03   2.56e-05
  1.5754e+03   2.39e-05
  1.6306e+03   2.23e-05
  1.6877e+03   2.09e-05
  1.7469e+03   1.96e-05
  1.8081e+03   1.84e-05
  1.8715e+03   1.73e-05
  1.9370e+03   1.62e-05
  2.0049e+03   1.53e-05
  2.0752e+03   1.44e-05
  2.1479e+03   1.35e-05
  2.2232e+03   1.27e-05
  2.3011e+03   1.20e-05
  2.3817e+03   1.13e-05
  2.4652e+03   1.06e-05
  2.5516e+03   9.99e-06
  2.6410e+03   9.40e-06
  2.7336e+03   8.86e-06
  2.8294e+03   8.34e-06
  2.9285e+03   7.85e-06
  3.0311e+03   7.39e-06
  3.1374e+03   6.95e-06
  3.2473e+03   6.53e-06
  3.3611e+03   6.13e-06
  3.4789e+03   5.76e-06
  3.6008e+03   5.40e-06
  3.7270e+03   5.06e-06
  3.8576e+03   4.74e-06
  3.9928e+03   4.43e-06
  4.1327e+03   4.14e-06
  4.2775e+03   3.86e-06
  4.4274e+03   3.59e-06
  4.5826e+03   3.34e-06
  4.7432e+03   3.10e-06
  4.9094e+03   2.86e-06
  5.0815e+03   2.64e-06
  5.2595e+03   2.43e-06
  5.4438e+03   2.23e-06
  5.6346e+03   2.04e-06
  5.8321e+03   1.86e-06
  6.0365e+03   1.69e-06
  6.2480e+03   1.53e-06
  6.4670e+03   1.38e-06
  6.6936e+03   1.24e-06
  6.9282e+03   1.11e-06
  7.1709e+03   9.83e-07
  7.4222e+03   8.68e-07
  7.6823e+03   7.63e-07
  7.9516e+03   6.66e-07
  8.2302e+03   5.77e-07
  8.5186e+03   4.96e-07
  8.8172e+03   4.23e-07
  9.1262e+03   3.58e-07
  9.4460e+03   2.99e-07
  9.7770e+03   2.48e-07
  1.0120e+04   2.03e-07
  1.0474e+04   1.64e-07
  1.0841e+04   1.30e-07
  1.1221e+04   1.02e-07
  1.1614e+04   7.88e-08
  1.2022e+04   5.97e-08
  1.2443e+04   4.43e-08
  1.2879e+04   3.21e-08
  1.3330e+04   2.28e-08
  1.3797e+04   1.57e-08
  1.4281e+04   1.05e-08
  1.4781e+04   6.80e-09
  1.5299e+04   4.25e-09
  1.5835e+04   2.55e-09
  1.6390e+04   1.46e-09
  1.6965e+04   7.95e-10
  1.7559e+04   4.10e-10
  1.8175e+04   1.98e-10
  1.8812e+04   8.91e-11
  1.9471e+04   3.70e-11
  2.0153e+04   1.40e-11
  2.0859e+04   4.80e-12
  2.1590e+04   1.46e-12
  2.2347e+04   3.91e-13
  2.3130e+04   8.97e-14
  2.3941e+04   1.73e-14
  2.4780e+04   2.74e-15
  2.5648e+04   3.44e-16
  2.6547e+04   3.35e-17
  2.7477e+04   2.40e-18
  2.8440e+04   1.21e-19
