#  E [MeV]   Flux [# cm^{-2} s^{-1}  MeV^{-1}]
  3.0000e+04   6.25e-26
  3.1232e+04   5.98e-26
  3.2514e+04   5.72e-26
  3.3849e+04   5.47e-26
  3.5238e+04   5.23e-26
  3.6685e+04   5.00e-26
  3.8191e+04   4.78e-26
  3.9759e+04   4.57e-26
  4.1391e+04   4.37e-26
  4.3090e+04   4.17e-26
  4.4859e+04   3.99e-26
  4.6701e+04   3.81e-26
  4.8618e+04   3.64e-26
  5.0614e+04   3.48e-26
  5.2692e+04   3.33e-26
  5.4855e+04   3.18e-26
  5.7107e+04   3.04e-26
  5.9451e+04   2.90e-26
  6.1892e+04   2.77e-26
  6.4433e+04   2.64e-26
  6.7078e+04   2.52e-26
  6.9832e+04   2.41e-26
  7.2699e+04   2.30e-26
  7.5683e+04   2.20e-26
  7.8790e+04   2.10e-26
  8.2025e+04   2.00e-26
  8.5392e+04   1.91e-26
  8.8898e+04   1.82e-26
  9.2547e+04   1.74e-26
  9.6347e+04   1.65e-26
  1.0030e+05   1.58e-26
  1.0442e+05   1.50e-26
  1.0871e+05   1.43e-26
  1.1317e+05   1.37e-26
  1.1782e+05   1.30e-26
  1.2265e+05   1.24e-26
  1.2769e+05   1.18e-26
  1.3293e+05   1.12e-26
  1.3839e+05   1.07e-26
  1.4407e+05   1.02e-26
  1.4998e+05   9.67e-27
  1.5614e+05   9.19e-27
  1.6255e+05   8.73e-27
  1.6922e+05   8.30e-27
  1.7617e+05   7.88e-27
  1.8340e+05   7.48e-27
  1.9093e+05   7.09e-27
  1.9877e+05   6.72e-27
  2.0693e+05   6.37e-27
  2.1543e+05   6.03e-27
  2.2427e+05   5.71e-27
  2.3348e+05   5.40e-27
  2.4306e+05   5.11e-27
  2.5304e+05   4.82e-27
  2.6343e+05   4.55e-27
  2.7424e+05   4.29e-27
  2.8550e+05   4.05e-27
  2.9722e+05   3.81e-27
  3.0942e+05   3.58e-27
  3.2213e+05   3.37e-27
  3.3535e+05   3.16e-27
  3.4912e+05   2.97e-27
  3.6345e+05   2.78e-27
  3.7837e+05   2.61e-27
  3.9390e+05   2.44e-27
  4.1008e+05   2.28e-27
  4.2691e+05   2.13e-27
  4.4444e+05   1.99e-27
  4.6268e+05   1.85e-27
  4.8168e+05   1.72e-27
  5.0145e+05   1.60e-27
  5.2204e+05   1.49e-27
  5.4347e+05   1.38e-27
  5.6578e+05   1.28e-27
  5.8901e+05   1.19e-27
  6.1319e+05   1.10e-27
  6.3836e+05   1.02e-27
  6.6457e+05   9.43e-28
  6.9185e+05   8.72e-28
  7.2025e+05   8.05e-28
  7.4982e+05   7.43e-28
  7.8061e+05   6.86e-28
  8.1265e+05   6.33e-28
  8.4601e+05   5.84e-28
  8.8075e+05   5.38e-28
  9.1690e+05   4.96e-28
  9.5455e+05   4.57e-28
  9.9373e+05   4.21e-28
  1.0345e+06   3.88e-28
  1.0770e+06   3.57e-28
  1.1212e+06   3.29e-28
  1.1672e+06   3.03e-28
  1.2152e+06   2.79e-28
  1.2650e+06   2.57e-28
  1.3170e+06   2.37e-28
  1.3711e+06   2.18e-28
  1.4273e+06   2.01e-28
  1.4859e+06   1.85e-28
  1.5469e+06   1.71e-28
  1.6104e+06   1.57e-28
  1.6766e+06   1.45e-28
  1.7454e+06   1.34e-28
  1.8170e+06   1.23e-28
  1.8916e+06   1.13e-28
  1.9693e+06   1.04e-28
  2.0501e+06   9.61e-29
  2.1343e+06   8.84e-29
  2.2219e+06   8.13e-29
  2.3131e+06   7.48e-29
  2.4081e+06   6.87e-29
  2.5070e+06   6.31e-29
  2.6099e+06   5.78e-29
  2.7170e+06   5.30e-29
  2.8286e+06   4.86e-29
  2.9447e+06   4.44e-29
  3.0656e+06   4.06e-29
  3.1914e+06   3.71e-29
  3.3225e+06   3.38e-29
  3.4589e+06   3.08e-29
  3.6008e+06   2.80e-29
  3.7487e+06   2.54e-29
  3.9026e+06   2.31e-29
  4.0628e+06   2.09e-29
  4.2296e+06   1.88e-29
  4.4032e+06   1.70e-29
  4.5840e+06   1.52e-29
  4.7722e+06   1.37e-29
  4.9681e+06   1.22e-29
  5.1720e+06   1.09e-29
  5.3844e+06   9.68e-30
  5.6054e+06   8.59e-30
  5.8355e+06   7.58e-30
  6.0751e+06   6.67e-30
  6.3245e+06   5.86e-30
  6.5841e+06   5.11e-30
  6.8544e+06   4.44e-30
  7.1358e+06   3.85e-30
  7.4288e+06   3.30e-30
  7.7338e+06   2.83e-30
  8.0513e+06   2.41e-30
  8.3818e+06   2.03e-30
  8.7259e+06   1.70e-30
  9.0841e+06   1.42e-30
  9.4571e+06   1.17e-30
  9.8453e+06   9.55e-31
  1.0249e+07   7.71e-31
  1.0670e+07   6.15e-31
  1.1108e+07   4.87e-31
  1.1564e+07   3.79e-31
  1.2039e+07   2.90e-31
  1.2533e+07   2.19e-31
  1.3048e+07   1.62e-31
  1.3584e+07   1.17e-31
  1.4141e+07   8.31e-32
  1.4722e+07   5.71e-32
  1.5326e+07   3.82e-32
  1.5955e+07   2.48e-32
  1.6610e+07   1.54e-32
  1.7292e+07   9.19e-33
  1.8002e+07   5.22e-33
  1.8741e+07   2.79e-33
  1.9511e+07   1.41e-33
  2.0312e+07   6.57e-34
  2.1145e+07   2.79e-34
  2.2013e+07   1.09e-34
  2.2917e+07   3.74e-35
  2.3858e+07   1.12e-35
  2.4837e+07   2.86e-36
  2.5857e+07   6.02e-37
  2.6919e+07   1.00e-37
  2.8024e+07   1.29e-38
  2.9174e+07   1.18e-39
  3.0372e+07   7.24e-41
  3.1619e+07   2.76e-42
  3.2917e+07   5.76e-44
  3.4268e+07   5.79e-46
  3.5675e+07   2.35e-48
  3.7140e+07   3.02e-51
  3.8664e+07   9.33e-55
  4.0252e+07   4.65e-59
  4.1904e+07   2.21e-64
  4.3624e+07   5.21e-71
  4.5415e+07   4.16e-72
  4.7280e+07   3.42e-72
  4.9221e+07   2.90e-72
  5.1241e+07   2.42e-72
  5.3345e+07   1.98e-72
  5.5535e+07   1.68e-72
  5.7815e+07   1.39e-72
  6.0188e+07   1.14e-72
  6.2659e+07   9.51e-73
  6.5232e+07   7.77e-73
  6.7910e+07   6.31e-73
  7.0698e+07   5.21e-73
  7.3600e+07   4.19e-73
  7.6621e+07   3.34e-73
  7.9767e+07   2.64e-73
  8.3042e+07   1.98e-73
  8.6451e+07   1.47e-73
  9.0000e+07   1.04e-73
