#  E [MeV]   Flux [# cm^{-2} s^{-1}  MeV^{-1}]
  3.0000e+04   8.97e-21
  3.1123e+04   8.61e-21
  3.2288e+04   8.27e-21
  3.3497e+04   7.94e-21
  3.4751e+04   7.61e-21
  3.6051e+04   7.31e-21
  3.7401e+04   7.01e-21
  3.8801e+04   6.72e-21
  4.0253e+04   6.45e-21
  4.1760e+04   6.19e-21
  4.3324e+04   5.93e-21
  4.4945e+04   5.69e-21
  4.6628e+04   5.45e-21
  4.8373e+04   5.23e-21
  5.0184e+04   5.01e-21
  5.2063e+04   4.80e-21
  5.4011e+04   4.60e-21
  5.6033e+04   4.41e-21
  5.8131e+04   4.22e-21
  6.0307e+04   4.05e-21
  6.2564e+04   3.87e-21
  6.4906e+04   3.71e-21
  6.7336e+04   3.55e-21
  6.9857e+04   3.40e-21
  7.2472e+04   3.25e-21
  7.5184e+04   3.11e-21
  7.7999e+04   2.98e-21
  8.0919e+04   2.85e-21
  8.3948e+04   2.72e-21
  8.7090e+04   2.60e-21
  9.0350e+04   2.48e-21
  9.3732e+04   2.37e-21
  9.7241e+04   2.27e-21
  1.0088e+05   2.16e-21
  1.0466e+05   2.07e-21
  1.0858e+05   1.97e-21
  1.1264e+05   1.88e-21
  1.1686e+05   1.79e-21
  1.2123e+05   1.71e-21
  1.2577e+05   1.63e-21
  1.3048e+05   1.55e-21
  1.3536e+05   1.48e-21
  1.4043e+05   1.41e-21
  1.4568e+05   1.34e-21
  1.5114e+05   1.27e-21
  1.5680e+05   1.21e-21
  1.6266e+05   1.15e-21
  1.6875e+05   1.09e-21
  1.7507e+05   1.03e-21
  1.8162e+05   9.78e-22
  1.8842e+05   9.26e-22
  1.9548e+05   8.77e-22
  2.0279e+05   8.29e-22
  2.1039e+05   7.84e-22
  2.1826e+05   7.41e-22
  2.2643e+05   6.99e-22
  2.3491e+05   6.59e-22
  2.4370e+05   6.21e-22
  2.5282e+05   5.85e-22
  2.6229e+05   5.50e-22
  2.7211e+05   5.17e-22
  2.8229e+05   4.85e-22
  2.9286e+05   4.54e-22
  3.0382e+05   4.25e-22
  3.1519e+05   3.98e-22
  3.2699e+05   3.72e-22
  3.3923e+05   3.47e-22
  3.5193e+05   3.23e-22
  3.6511e+05   3.01e-22
  3.7877e+05   2.80e-22
  3.9295e+05   2.60e-22
  4.0766e+05   2.41e-22
  4.2292e+05   2.23e-22
  4.3875e+05   2.07e-22
  4.5518e+05   1.91e-22
  4.7222e+05   1.77e-22
  4.8989e+05   1.63e-22
  5.0823e+05   1.50e-22
  5.2726e+05   1.38e-22
  5.4699e+05   1.27e-22
  5.6747e+05   1.17e-22
  5.8871e+05   1.07e-22
  6.1075e+05   9.81e-23
  6.3361e+05   8.99e-23
  6.5733e+05   8.23e-23
  6.8194e+05   7.53e-23
  7.0746e+05   6.89e-23
  7.3395e+05   6.29e-23
  7.6142e+05   5.75e-23
  7.8992e+05   5.25e-23
  8.1949e+05   4.79e-23
  8.5017e+05   4.37e-23
  8.8199e+05   3.99e-23
  9.1501e+05   3.64e-23
  9.4926e+05   3.32e-23
  9.8479e+05   3.03e-23
  1.0217e+06   2.76e-23
  1.0599e+06   2.52e-23
  1.0996e+06   2.30e-23
  1.1407e+06   2.10e-23
  1.1834e+06   1.91e-23
  1.2277e+06   1.75e-23
  1.2737e+06   1.59e-23
  1.3214e+06   1.45e-23
  1.3708e+06   1.33e-23
  1.4222e+06   1.21e-23
  1.4754e+06   1.11e-23
  1.5306e+06   1.01e-23
  1.5879e+06   9.23e-24
  1.6474e+06   8.43e-24
  1.7090e+06   7.71e-24
  1.7730e+06   7.04e-24
  1.8394e+06   6.42e-24
  1.9082e+06   5.87e-24
  1.9797e+06   5.36e-24
  2.0538e+06   4.89e-24
  2.1306e+06   4.47e-24
  2.2104e+06   4.07e-24
  2.2931e+06   3.71e-24
  2.3790e+06   3.38e-24
  2.4680e+06   3.08e-24
  2.5604e+06   2.80e-24
  2.6563e+06   2.55e-24
  2.7557e+06   2.31e-24
  2.8589e+06   2.09e-24
  2.9659e+06   1.90e-24
  3.0769e+06   1.72e-24
  3.1921e+06   1.55e-24
  3.3116e+06   1.40e-24
  3.4355e+06   1.26e-24
  3.5641e+06   1.13e-24
  3.6976e+06   1.02e-24
  3.8360e+06   9.12e-25
  3.9796e+06   8.15e-25
  4.1285e+06   7.26e-25
  4.2831e+06   6.46e-25
  4.4434e+06   5.73e-25
  4.6097e+06   5.06e-25
  4.7823e+06   4.47e-25
  4.9613e+06   3.93e-25
  5.1470e+06   3.43e-25
  5.3397e+06   3.00e-25
  5.5396e+06   2.61e-25
  5.7470e+06   2.25e-25
  5.9621e+06   1.95e-25
  6.1853e+06   1.67e-25
  6.4168e+06   1.42e-25
  6.6570e+06   1.21e-25
  6.9062e+06   1.02e-25
  7.1647e+06   8.58e-26
  7.4329e+06   7.15e-26
  7.7112e+06   5.93e-26
  7.9998e+06   4.87e-26
  8.2993e+06   3.96e-26
  8.6100e+06   3.21e-26
  8.9323e+06   2.56e-26
  9.2666e+06   2.03e-26
  9.6135e+06   1.59e-26
  9.9734e+06   1.23e-26
  1.0347e+07   9.36e-27
  1.0734e+07   7.08e-27
  1.1136e+07   5.24e-27
  1.1553e+07   3.80e-27
  1.1985e+07   2.73e-27
  1.2434e+07   1.91e-27
  1.2899e+07   1.30e-27
  1.3382e+07   8.71e-28
  1.3883e+07   5.65e-28
  1.4403e+07   3.54e-28
  1.4942e+07   2.15e-28
  1.5501e+07   1.26e-28
  1.6081e+07   6.99e-29
  1.6683e+07   3.73e-29
  1.7308e+07   1.88e-29
  1.7956e+07   8.88e-30
  1.8628e+07   3.91e-30
  1.9325e+07   1.60e-30
  2.0049e+07   5.90e-31
  2.0799e+07   1.96e-31
  2.1578e+07   5.83e-32
  2.2386e+07   1.49e-32
  2.3224e+07   3.25e-33
  2.4093e+07   5.92e-34
  2.4995e+07   8.61e-35
  2.5930e+07   9.68e-36
  2.6901e+07   8.24e-37
  2.7908e+07   4.90e-38
  2.8953e+07   1.92e-39
  3.0037e+07   4.74e-41
  3.1161e+07   6.49e-43
  3.2327e+07   4.39e-45
  3.3537e+07   1.38e-47
  3.4793e+07   1.57e-50
  3.6095e+07   5.19e-54
  3.7446e+07   4.58e-58
  3.8848e+07   6.51e-63
  4.0302e+07   1.28e-65
  4.1811e+07   1.58e-65
  4.3376e+07   1.93e-65
  4.5000e+07   2.25e-65
