#  E [MeV]   Flux [# cm^{-2} s^{-1}  MeV^{-1}]
  3.0000e+04   3.72e-20
  3.0943e+04   3.59e-20
  3.1916e+04   3.46e-20
  3.2920e+04   3.34e-20
  3.3955e+04   3.23e-20
  3.5023e+04   3.11e-20
  3.6124e+04   3.00e-20
  3.7260e+04   2.90e-20
  3.8432e+04   2.80e-20
  3.9640e+04   2.70e-20
  4.0887e+04   2.60e-20
  4.2172e+04   2.51e-20
  4.3499e+04   2.42e-20
  4.4866e+04   2.33e-20
  4.6277e+04   2.24e-20
  4.7732e+04   2.16e-20
  4.9233e+04   2.08e-20
  5.0781e+04   2.00e-20
  5.2378e+04   1.93e-20
  5.4025e+04   1.85e-20
  5.5724e+04   1.78e-20
  5.7476e+04   1.72e-20
  5.9284e+04   1.65e-20
  6.1148e+04   1.59e-20
  6.3071e+04   1.53e-20
  6.5054e+04   1.47e-20
  6.7100e+04   1.41e-20
  6.9210e+04   1.35e-20
  7.1386e+04   1.30e-20
  7.3631e+04   1.25e-20
  7.5946e+04   1.20e-20
  7.8334e+04   1.15e-20
  8.0797e+04   1.10e-20
  8.3338e+04   1.06e-20
  8.5959e+04   1.01e-20
  8.8662e+04   9.71e-21
  9.1450e+04   9.31e-21
  9.4325e+04   8.91e-21
  9.7291e+04   8.53e-21
  1.0035e+05   8.17e-21
  1.0351e+05   7.82e-21
  1.0676e+05   7.48e-21
  1.1012e+05   7.15e-21
  1.1358e+05   6.83e-21
  1.1715e+05   6.53e-21
  1.2084e+05   6.24e-21
  1.2464e+05   5.96e-21
  1.2856e+05   5.69e-21
  1.3260e+05   5.43e-21
  1.3677e+05   5.18e-21
  1.4107e+05   4.94e-21
  1.4550e+05   4.71e-21
  1.5008e+05   4.49e-21
  1.5480e+05   4.27e-21
  1.5967e+05   4.07e-21
  1.6469e+05   3.87e-21
  1.6987e+05   3.68e-21
  1.7521e+05   3.50e-21
  1.8072e+05   3.33e-21
  1.8640e+05   3.16e-21
  1.9226e+05   3.00e-21
  1.9831e+05   2.85e-21
  2.0454e+05   2.70e-21
  2.1097e+05   2.56e-21
  2.1761e+05   2.43e-21
  2.2445e+05   2.30e-21
  2.3151e+05   2.17e-21
  2.3879e+05   2.06e-21
  2.4630e+05   1.95e-21
  2.5404e+05   1.84e-21
  2.6203e+05   1.74e-21
  2.7027e+05   1.64e-21
  2.7877e+05   1.55e-21
  2.8753e+05   1.46e-21
  2.9657e+05   1.37e-21
  3.0590e+05   1.29e-21
  3.1552e+05   1.22e-21
  3.2544e+05   1.14e-21
  3.3567e+05   1.07e-21
  3.4623e+05   1.01e-21
  3.5712e+05   9.45e-22
  3.6835e+05   8.86e-22
  3.7993e+05   8.29e-22
  3.9188e+05   7.76e-22
  4.0420e+05   7.26e-22
  4.1691e+05   6.78e-22
  4.3002e+05   6.33e-22
  4.4354e+05   5.91e-22
  4.5749e+05   5.51e-22
  4.7187e+05   5.13e-22
  4.8671e+05   4.78e-22
  5.0202e+05   4.45e-22
  5.1780e+05   4.14e-22
  5.3409e+05   3.84e-22
  5.5088e+05   3.57e-22
  5.6820e+05   3.31e-22
  5.8607e+05   3.07e-22
  6.0450e+05   2.85e-22
  6.2351e+05   2.64e-22
  6.4311e+05   2.44e-22
  6.6334e+05   2.26e-22
  6.8419e+05   2.09e-22
  7.0571e+05   1.93e-22
  7.2790e+05   1.78e-22
  7.5079e+05   1.64e-22
  7.7440e+05   1.52e-22
  7.9875e+05   1.40e-22
  8.2387e+05   1.29e-22
  8.4977e+05   1.19e-22
  8.7649e+05   1.10e-22
  9.0405e+05   1.01e-22
  9.3248e+05   9.28e-23
  9.6180e+05   8.55e-23
  9.9205e+05   7.87e-23
  1.0232e+06   7.23e-23
  1.0554e+06   6.64e-23
  1.0886e+06   6.11e-23
  1.1228e+06   5.62e-23
  1.1581e+06   5.16e-23
  1.1946e+06   4.73e-23
  1.2321e+06   4.35e-23
  1.2709e+06   4.00e-23
  1.3108e+06   3.67e-23
  1.3521e+06   3.37e-23
  1.3946e+06   3.09e-23
  1.4384e+06   2.84e-23
  1.4837e+06   2.60e-23
  1.5303e+06   2.38e-23
  1.5784e+06   2.18e-23
  1.6281e+06   2.00e-23
  1.6793e+06   1.83e-23
  1.7321e+06   1.68e-23
  1.7865e+06   1.54e-23
  1.8427e+06   1.40e-23
  1.9006e+06   1.28e-23
  1.9604e+06   1.17e-23
  2.0221e+06   1.07e-23
  2.0856e+06   9.79e-24
  2.1512e+06   8.94e-24
  2.2189e+06   8.18e-24
  2.2886e+06   7.45e-24
  2.3606e+06   6.77e-24
  2.4348e+06   6.19e-24
  2.5114e+06   5.64e-24
  2.5904e+06   5.13e-24
  2.6718e+06   4.66e-24
  2.7558e+06   4.24e-24
  2.8425e+06   3.86e-24
  2.9319e+06   3.49e-24
  3.0241e+06   3.17e-24
  3.1192e+06   2.88e-24
  3.2173e+06   2.60e-24
  3.3184e+06   2.35e-24
  3.4228e+06   2.13e-24
  3.5304e+06   1.93e-24
  3.6414e+06   1.74e-24
  3.7559e+06   1.56e-24
  3.8740e+06   1.42e-24
  3.9958e+06   1.28e-24
  4.1215e+06   1.15e-24
  4.2511e+06   1.04e-24
  4.3848e+06   9.38e-25
  4.5227e+06   8.45e-25
  4.6649e+06   7.59e-25
  4.8116e+06   6.84e-25
  4.9629e+06   6.18e-25
  5.1189e+06   5.56e-25
  5.2799e+06   4.98e-25
  5.4459e+06   4.52e-25
  5.6171e+06   4.09e-25
  5.7938e+06   3.69e-25
  5.9760e+06   3.33e-25
  6.1639e+06   3.03e-25
  6.3577e+06   2.75e-25
  6.5576e+06   2.49e-25
  6.7638e+06   2.27e-25
  6.9765e+06   2.08e-25
  7.1959e+06   1.89e-25
  7.4222e+06   1.72e-25
  7.6556e+06   1.58e-25
  7.8963e+06   1.46e-25
  8.1446e+06   1.33e-25
  8.4007e+06   1.22e-25
  8.6649e+06   1.14e-25
  8.9373e+06   1.06e-25
  9.2184e+06   9.79e-26
  9.5082e+06   9.11e-26
  9.8072e+06   8.62e-26
  1.0116e+07   8.10e-26
  1.0434e+07   7.54e-26
  1.0762e+07   7.27e-26
  1.1100e+07   7.11e-26
  1.1449e+07   6.82e-26
  1.1809e+07   6.44e-26
  1.2181e+07   6.90e-26
  1.2564e+07   7.15e-26
  1.2959e+07   7.09e-26
  1.3366e+07   6.71e-26
  1.3786e+07   5.80e-26
  1.4220e+07   4.93e-26
