#  E [GeV]   # per interaction  [GeV^{-1}]
  3.0000e+01   5.16e-01
  3.1123e+01   4.96e-01
  3.2288e+01   4.76e-01
  3.3497e+01   4.58e-01
  3.4751e+01   4.39e-01
  3.6051e+01   4.22e-01
  3.7401e+01   4.05e-01
  3.8801e+01   3.89e-01
  4.0253e+01   3.74e-01
  4.1760e+01   3.59e-01
  4.3324e+01   3.45e-01
  4.4945e+01   3.31e-01
  4.6628e+01   3.18e-01
  4.8373e+01   3.05e-01
  5.0184e+01   2.93e-01
  5.2063e+01   2.81e-01
  5.4011e+01   2.69e-01
  5.6033e+01   2.58e-01
  5.8131e+01   2.48e-01
  6.0307e+01   2.38e-01
  6.2564e+01   2.28e-01
  6.4906e+01   2.19e-01
  6.7336e+01   2.10e-01
  6.9857e+01   2.01e-01
  7.2472e+01   1.93e-01
  7.5184e+01   1.85e-01
  7.7999e+01   1.77e-01
  8.0919e+01   1.69e-01
  8.3948e+01   1.62e-01
  8.7090e+01   1.55e-01
  9.0350e+01   1.49e-01
  9.3732e+01   1.42e-01
  9.7241e+01   1.36e-01
  1.0088e+02   1.30e-01
  1.0466e+02   1.25e-01
  1.0858e+02   1.19e-01
  1.1264e+02   1.14e-01
  1.1686e+02   1.09e-01
  1.2123e+02   1.04e-01
  1.2577e+02   9.92e-02
  1.3048e+02   9.47e-02
  1.3536e+02   9.04e-02
  1.4043e+02   8.62e-02
  1.4568e+02   8.22e-02
  1.5114e+02   7.83e-02
  1.5680e+02   7.46e-02
  1.6266e+02   7.11e-02
  1.6875e+02   6.76e-02
  1.7507e+02   6.43e-02
  1.8162e+02   6.12e-02
  1.8842e+02   5.82e-02
  1.9548e+02   5.52e-02
  2.0279e+02   5.24e-02
  2.1039e+02   4.98e-02
  2.1826e+02   4.72e-02
  2.2643e+02   4.47e-02
  2.3491e+02   4.23e-02
  2.4370e+02   4.01e-02
  2.5282e+02   3.79e-02
  2.6229e+02   3.58e-02
  2.7211e+02   3.38e-02
  2.8229e+02   3.19e-02
  2.9286e+02   3.01e-02
  3.0382e+02   2.83e-02
  3.1519e+02   2.66e-02
  3.2699e+02   2.51e-02
  3.3923e+02   2.35e-02
  3.5193e+02   2.21e-02
  3.6511e+02   2.07e-02
  3.7877e+02   1.94e-02
  3.9295e+02   1.82e-02
  4.0766e+02   1.70e-02
  4.2292e+02   1.59e-02
  4.3875e+02   1.48e-02
  4.5518e+02   1.38e-02
  4.7222e+02   1.29e-02
  4.8989e+02   1.20e-02
  5.0823e+02   1.12e-02
  5.2726e+02   1.04e-02
  5.4699e+02   9.64e-03
  5.6747e+02   8.94e-03
  5.8871e+02   8.29e-03
  6.1075e+02   7.68e-03
  6.3361e+02   7.11e-03
  6.5733e+02   6.58e-03
  6.8194e+02   6.09e-03
  7.0746e+02   5.63e-03
  7.3395e+02   5.20e-03
  7.6142e+02   4.80e-03
  7.8992e+02   4.43e-03
  8.1949e+02   4.09e-03
  8.5017e+02   3.77e-03
  8.8199e+02   3.48e-03
  9.1501e+02   3.20e-03
  9.4926e+02   2.95e-03
  9.8479e+02   2.72e-03
  1.0217e+03   2.51e-03
  1.0599e+03   2.31e-03
  1.0996e+03   2.13e-03
  1.1407e+03   1.96e-03
  1.1834e+03   1.80e-03
  1.2277e+03   1.66e-03
  1.2737e+03   1.53e-03
  1.3214e+03   1.40e-03
  1.3708e+03   1.29e-03
  1.4222e+03   1.19e-03
  1.4754e+03   1.09e-03
  1.5306e+03   1.01e-03
  1.5879e+03   9.26e-04
  1.6474e+03   8.51e-04
  1.7090e+03   7.83e-04
  1.7730e+03   7.20e-04
  1.8394e+03   6.61e-04
  1.9082e+03   6.08e-04
  1.9797e+03   5.58e-04
  2.0538e+03   5.13e-04
  2.1306e+03   4.70e-04
  2.2104e+03   4.31e-04
  2.2931e+03   3.95e-04
  2.3790e+03   3.62e-04
  2.4680e+03   3.31e-04
  2.5604e+03   3.03e-04
  2.6563e+03   2.77e-04
  2.7557e+03   2.53e-04
  2.8589e+03   2.31e-04
  2.9659e+03   2.10e-04
  3.0769e+03   1.91e-04
  3.1921e+03   1.74e-04
  3.3116e+03   1.58e-04
  3.4355e+03   1.43e-04
  3.5641e+03   1.30e-04
  3.6976e+03   1.17e-04
  3.8360e+03   1.06e-04
  3.9796e+03   9.54e-05
  4.1285e+03   8.58e-05
  4.2831e+03   7.70e-05
  4.4434e+03   6.90e-05
  4.6097e+03   6.16e-05
  4.7823e+03   5.48e-05
  4.9613e+03   4.88e-05
  5.1470e+03   4.33e-05
  5.3397e+03   3.82e-05
  5.5396e+03   3.38e-05
  5.7470e+03   2.97e-05
  5.9621e+03   2.59e-05
  6.1853e+03   2.27e-05
  6.4168e+03   1.97e-05
  6.6570e+03   1.71e-05
  6.9062e+03   1.48e-05
  7.1647e+03   1.27e-05
  7.4329e+03   1.08e-05
  7.7112e+03   9.20e-06
  7.9998e+03   7.79e-06
  8.2993e+03   6.53e-06
  8.6100e+03   5.46e-06
  8.9323e+03   4.53e-06
  9.2666e+03   3.71e-06
  9.6135e+03   3.03e-06
  9.9734e+03   2.46e-06
  1.0347e+04   1.96e-06
  1.0734e+04   1.55e-06
  1.1136e+04   1.22e-06
  1.1553e+04   9.45e-07
  1.1985e+04   7.20e-07
  1.2434e+04   5.45e-07
  1.2899e+04   4.03e-07
  1.3382e+04   2.92e-07
  1.3883e+04   2.10e-07
  1.4403e+04   1.47e-07
  1.4942e+04   9.93e-08
  1.5501e+04   6.66e-08
  1.6081e+04   4.31e-08
  1.6683e+04   2.66e-08
  1.7308e+04   1.61e-08
  1.7956e+04   9.32e-09
  1.8628e+04   5.08e-09
  1.9325e+04   2.66e-09
  2.0049e+04   1.31e-09
  2.0799e+04   5.95e-10
  2.1578e+04   2.52e-10
  2.2386e+04   9.83e-11
  2.3224e+04   3.40e-11
  2.4093e+04   1.05e-11
  2.4995e+04   2.84e-12
  2.5930e+04   6.46e-13
  2.6901e+04   1.21e-13
  2.7908e+04   1.84e-14
  2.8953e+04   2.11e-15
  3.0037e+04   1.74e-16
  3.1161e+04   1.00e-17
  3.2327e+04   3.60e-19
  3.3537e+04   7.27e-21
  3.4793e+04   7.80e-23
  3.6095e+04   3.60e-25
  3.7446e+04   5.89e-28
  3.8848e+04   2.80e-31
  4.0302e+04   2.72e-35
  4.1811e+04   3.55e-40
  4.3376e+04   3.96e-46
  4.5000e+04   1.93e-48
