#  E [MeV]   Flux [# cm^{-2} s^{-1}  MeV^{-1}]
  3.0000e+04   1.72e-20
  3.1123e+04   1.65e-20
  3.2288e+04   1.57e-20
  3.3497e+04   1.50e-20
  3.4751e+04   1.44e-20
  3.6051e+04   1.37e-20
  3.7401e+04   1.31e-20
  3.8801e+04   1.25e-20
  4.0253e+04   1.19e-20
  4.1760e+04   1.14e-20
  4.3324e+04   1.09e-20
  4.4945e+04   1.04e-20
  4.6628e+04   9.89e-21
  4.8373e+04   9.43e-21
  5.0184e+04   8.99e-21
  5.2063e+04   8.57e-21
  5.4011e+04   8.17e-21
  5.6033e+04   7.79e-21
  5.8131e+04   7.42e-21
  6.0307e+04   7.07e-21
  6.2564e+04   6.73e-21
  6.4906e+04   6.41e-21
  6.7336e+04   6.11e-21
  6.9857e+04   5.81e-21
  7.2472e+04   5.53e-21
  7.5184e+04   5.26e-21
  7.7999e+04   5.01e-21
  8.0919e+04   4.76e-21
  8.3948e+04   4.53e-21
  8.7090e+04   4.31e-21
  9.0350e+04   4.10e-21
  9.3732e+04   3.89e-21
  9.7241e+04   3.70e-21
  1.0088e+05   3.51e-21
  1.0466e+05   3.34e-21
  1.0858e+05   3.17e-21
  1.1264e+05   3.01e-21
  1.1686e+05   2.86e-21
  1.2123e+05   2.71e-21
  1.2577e+05   2.57e-21
  1.3048e+05   2.44e-21
  1.3536e+05   2.31e-21
  1.4043e+05   2.19e-21
  1.4568e+05   2.07e-21
  1.5114e+05   1.96e-21
  1.5680e+05   1.86e-21
  1.6266e+05   1.76e-21
  1.6875e+05   1.66e-21
  1.7507e+05   1.57e-21
  1.8162e+05   1.48e-21
  1.8842e+05   1.40e-21
  1.9548e+05   1.32e-21
  2.0279e+05   1.25e-21
  2.1039e+05   1.18e-21
  2.1826e+05   1.11e-21
  2.2643e+05   1.04e-21
  2.3491e+05   9.81e-22
  2.4370e+05   9.22e-22
  2.5282e+05   8.66e-22
  2.6229e+05   8.13e-22
  2.7211e+05   7.62e-22
  2.8229e+05   7.14e-22
  2.9286e+05   6.68e-22
  3.0382e+05   6.24e-22
  3.1519e+05   5.83e-22
  3.2699e+05   5.44e-22
  3.3923e+05   5.07e-22
  3.5193e+05   4.72e-22
  3.6511e+05   4.39e-22
  3.7877e+05   4.08e-22
  3.9295e+05   3.78e-22
  4.0766e+05   3.50e-22
  4.2292e+05   3.24e-22
  4.3875e+05   3.00e-22
  4.5518e+05   2.77e-22
  4.7222e+05   2.55e-22
  4.8989e+05   2.35e-22
  5.0823e+05   2.16e-22
  5.2726e+05   1.98e-22
  5.4699e+05   1.82e-22
  5.6747e+05   1.66e-22
  5.8871e+05   1.52e-22
  6.1075e+05   1.39e-22
  6.3361e+05   1.27e-22
  6.5733e+05   1.16e-22
  6.8194e+05   1.06e-22
  7.0746e+05   9.69e-23
  7.3395e+05   8.84e-23
  7.6142e+05   8.06e-23
  7.8992e+05   7.35e-23
  8.1949e+05   6.70e-23
  8.5017e+05   6.10e-23
  8.8199e+05   5.56e-23
  9.1501e+05   5.07e-23
  9.4926e+05   4.62e-23
  9.8479e+05   4.20e-23
  1.0217e+06   3.83e-23
  1.0599e+06   3.48e-23
  1.0996e+06   3.17e-23
  1.1407e+06   2.89e-23
  1.1834e+06   2.63e-23
  1.2277e+06   2.39e-23
  1.2737e+06   2.18e-23
  1.3214e+06   1.98e-23
  1.3708e+06   1.80e-23
  1.4222e+06   1.64e-23
  1.4754e+06   1.49e-23
  1.5306e+06   1.36e-23
  1.5879e+06   1.24e-23
  1.6474e+06   1.13e-23
  1.7090e+06   1.03e-23
  1.7730e+06   9.32e-24
  1.8394e+06   8.47e-24
  1.9082e+06   7.70e-24
  1.9797e+06   7.00e-24
  2.0538e+06   6.34e-24
  2.1306e+06   5.76e-24
  2.2104e+06   5.22e-24
  2.2931e+06   4.71e-24
  2.3790e+06   4.27e-24
  2.4680e+06   3.85e-24
  2.5604e+06   3.47e-24
  2.6563e+06   3.13e-24
  2.7557e+06   2.82e-24
  2.8589e+06   2.53e-24
  2.9659e+06   2.27e-24
  3.0769e+06   2.03e-24
  3.1921e+06   1.81e-24
  3.3116e+06   1.61e-24
  3.4355e+06   1.44e-24
  3.5641e+06   1.27e-24
  3.6976e+06   1.12e-24
  3.8360e+06   9.94e-25
  3.9796e+06   8.74e-25
  4.1285e+06   7.65e-25
  4.2831e+06   6.70e-25
  4.4434e+06   5.83e-25
  4.6097e+06   5.04e-25
  4.7823e+06   4.37e-25
  4.9613e+06   3.76e-25
  5.1470e+06   3.20e-25
  5.3397e+06   2.75e-25
  5.5396e+06   2.33e-25
  5.7470e+06   1.96e-25
  5.9621e+06   1.65e-25
  6.1853e+06   1.39e-25
  6.4168e+06   1.15e-25
  6.6570e+06   9.48e-26
  6.9062e+06   7.79e-26
  7.1647e+06   6.32e-26
  7.4329e+06   5.11e-26
  7.7112e+06   4.11e-26
  7.9998e+06   3.25e-26
  8.2993e+06   2.55e-26
  8.6100e+06   2.00e-26
  8.9323e+06   1.54e-26
  9.2666e+06   1.16e-26
  9.6135e+06   8.81e-27
  9.9734e+06   6.52e-27
  1.0347e+07   4.73e-27
  1.0734e+07   3.43e-27
  1.1136e+07   2.43e-27
  1.1553e+07   1.66e-27
  1.1985e+07   1.14e-27
  1.2434e+07   7.59e-28
  1.2899e+07   4.85e-28
  1.3382e+07   3.09e-28
  1.3883e+07   1.89e-28
  1.4403e+07   1.11e-28
  1.4942e+07   6.34e-29
  1.5501e+07   3.48e-29
  1.6081e+07   1.80e-29
  1.6683e+07   8.92e-30
  1.7308e+07   4.20e-30
  1.7956e+07   1.82e-30
  1.8628e+07   7.41e-31
  1.9325e+07   2.80e-31
  2.0049e+07   9.50e-32
  2.0799e+07   2.89e-32
  2.1578e+07   7.92e-33
  2.2386e+07   1.86e-33
  2.3224e+07   3.68e-34
  2.4093e+07   6.13e-35
  2.4995e+07   8.12e-36
  2.5930e+07   8.24e-37
  2.6901e+07   6.33e-38
  2.7908e+07   3.39e-39
  2.8953e+07   1.19e-40
  3.0037e+07   2.58e-42
  3.1161e+07   3.10e-44
  3.2327e+07   1.84e-46
  3.3537e+07   4.72e-49
  3.4793e+07   4.41e-52
  3.6095e+07   1.21e-55
  3.7446e+07   7.42e-60
  3.8848e+07   7.35e-65
  4.0302e+07   1.06e-67
  4.1811e+07   9.38e-68
  4.3376e+07   8.34e-68
  4.5000e+07   7.36e-68
