#  E [GeV]   # per interaction  [GeV^{-1}]
  3.0000e+01   6.68e-01
  3.1232e+01   6.39e-01
  3.2514e+01   6.11e-01
  3.3849e+01   5.84e-01
  3.5238e+01   5.59e-01
  3.6685e+01   5.34e-01
  3.8191e+01   5.11e-01
  3.9759e+01   4.89e-01
  4.1391e+01   4.67e-01
  4.3090e+01   4.47e-01
  4.4859e+01   4.27e-01
  4.6701e+01   4.08e-01
  4.8618e+01   3.90e-01
  5.0614e+01   3.73e-01
  5.2692e+01   3.56e-01
  5.4855e+01   3.40e-01
  5.7107e+01   3.25e-01
  5.9451e+01   3.11e-01
  6.1892e+01   2.97e-01
  6.4433e+01   2.84e-01
  6.7078e+01   2.71e-01
  6.9832e+01   2.59e-01
  7.2699e+01   2.47e-01
  7.5683e+01   2.36e-01
  7.8790e+01   2.26e-01
  8.2025e+01   2.15e-01
  8.5392e+01   2.06e-01
  8.8898e+01   1.96e-01
  9.2547e+01   1.87e-01
  9.6347e+01   1.79e-01
  1.0030e+02   1.71e-01
  1.0442e+02   1.63e-01
  1.0871e+02   1.55e-01
  1.1317e+02   1.48e-01
  1.1782e+02   1.41e-01
  1.2265e+02   1.35e-01
  1.2769e+02   1.29e-01
  1.3293e+02   1.23e-01
  1.3839e+02   1.17e-01
  1.4407e+02   1.12e-01
  1.4998e+02   1.06e-01
  1.5614e+02   1.01e-01
  1.6255e+02   9.66e-02
  1.6922e+02   9.20e-02
  1.7617e+02   8.76e-02
  1.8340e+02   8.34e-02
  1.9093e+02   7.94e-02
  1.9877e+02   7.56e-02
  2.0693e+02   7.19e-02
  2.1543e+02   6.84e-02
  2.2427e+02   6.51e-02
  2.3348e+02   6.19e-02
  2.4306e+02   5.89e-02
  2.5304e+02   5.60e-02
  2.6343e+02   5.32e-02
  2.7424e+02   5.05e-02
  2.8550e+02   4.80e-02
  2.9722e+02   4.55e-02
  3.0942e+02   4.32e-02
  3.2213e+02   4.10e-02
  3.3535e+02   3.89e-02
  3.4912e+02   3.68e-02
  3.6345e+02   3.49e-02
  3.7837e+02   3.31e-02
  3.9390e+02   3.13e-02
  4.1008e+02   2.96e-02
  4.2691e+02   2.80e-02
  4.4444e+02   2.65e-02
  4.6268e+02   2.51e-02
  4.8168e+02   2.37e-02
  5.0145e+02   2.24e-02
  5.2204e+02   2.11e-02
  5.4347e+02   2.00e-02
  5.6578e+02   1.88e-02
  5.8901e+02   1.77e-02
  6.1319e+02   1.67e-02
  6.3836e+02   1.58e-02
  6.6457e+02   1.48e-02
  6.9185e+02   1.40e-02
  7.2025e+02   1.31e-02
  7.4982e+02   1.24e-02
  7.8061e+02   1.16e-02
  8.1265e+02   1.09e-02
  8.4601e+02   1.02e-02
  8.8075e+02   9.62e-03
  9.1690e+02   9.03e-03
  9.5455e+02   8.47e-03
  9.9373e+02   7.94e-03
  1.0345e+03   7.44e-03
  1.0770e+03   6.97e-03
  1.1212e+03   6.53e-03
  1.1672e+03   6.11e-03
  1.2152e+03   5.71e-03
  1.2650e+03   5.34e-03
  1.3170e+03   4.99e-03
  1.3711e+03   4.66e-03
  1.4273e+03   4.36e-03
  1.4859e+03   4.07e-03
  1.5469e+03   3.79e-03
  1.6104e+03   3.54e-03
  1.6766e+03   3.30e-03
  1.7454e+03   3.07e-03
  1.8170e+03   2.86e-03
  1.8916e+03   2.66e-03
  1.9693e+03   2.48e-03
  2.0501e+03   2.30e-03
  2.1343e+03   2.14e-03
  2.2219e+03   1.99e-03
  2.3131e+03   1.85e-03
  2.4081e+03   1.71e-03
  2.5070e+03   1.59e-03
  2.6099e+03   1.47e-03
  2.7170e+03   1.36e-03
  2.8286e+03   1.26e-03
  2.9447e+03   1.17e-03
  3.0656e+03   1.08e-03
  3.1914e+03   9.95e-04
  3.3225e+03   9.18e-04
  3.4589e+03   8.47e-04
  3.6008e+03   7.80e-04
  3.7487e+03   7.19e-04
  3.9026e+03   6.61e-04
  4.0628e+03   6.08e-04
  4.2296e+03   5.59e-04
  4.4032e+03   5.13e-04
  4.5840e+03   4.70e-04
  4.7722e+03   4.31e-04
  4.9681e+03   3.94e-04
  5.1720e+03   3.60e-04
  5.3844e+03   3.29e-04
  5.6054e+03   3.00e-04
  5.8355e+03   2.74e-04
  6.0751e+03   2.49e-04
  6.3245e+03   2.26e-04
  6.5841e+03   2.06e-04
  6.8544e+03   1.87e-04
  7.1358e+03   1.69e-04
  7.4288e+03   1.53e-04
  7.7338e+03   1.39e-04
  8.0513e+03   1.25e-04
  8.3818e+03   1.13e-04
  8.7259e+03   1.01e-04
  9.0841e+03   9.11e-05
  9.4571e+03   8.17e-05
  9.8453e+03   7.29e-05
  1.0249e+04   6.52e-05
  1.0670e+04   5.81e-05
  1.1108e+04   5.16e-05
  1.1564e+04   4.58e-05
  1.2039e+04   4.06e-05
  1.2533e+04   3.57e-05
  1.3048e+04   3.15e-05
  1.3584e+04   2.77e-05
  1.4141e+04   2.41e-05
  1.4722e+04   2.11e-05
  1.5326e+04   1.83e-05
  1.5955e+04   1.58e-05
  1.6610e+04   1.36e-05
  1.7292e+04   1.16e-05
  1.8002e+04   9.88e-06
  1.8741e+04   8.36e-06
  1.9511e+04   6.99e-06
  2.0312e+04   5.81e-06
  2.1145e+04   4.80e-06
  2.2013e+04   3.90e-06
  2.2917e+04   3.14e-06
  2.3858e+04   2.50e-06
  2.4837e+04   1.94e-06
  2.5857e+04   1.50e-06
  2.6919e+04   1.12e-06
  2.8024e+04   8.14e-07
  2.9174e+04   5.81e-07
  3.0372e+04   3.96e-07
  3.1619e+04   2.57e-07
  3.2917e+04   1.60e-07
  3.4268e+04   9.22e-08
  3.5675e+04   4.87e-08
  3.7140e+04   2.35e-08
  3.8664e+04   9.84e-09
  4.0252e+04   3.50e-09
  4.1904e+04   1.02e-09
  4.3624e+04   2.24e-10
  4.5415e+04   3.49e-11
  4.7280e+04   3.45e-12
  4.9221e+04   1.83e-13
  5.1241e+04   4.33e-15
  5.3345e+04   3.41e-17
  5.5535e+04   5.77e-20
  5.7815e+04   1.22e-23
  6.0188e+04   1.34e-28
  6.2659e+04   2.15e-35
  6.5232e+04   8.29e-45
  6.7910e+04   8.34e-48
  7.0698e+04   6.71e-48
  7.3600e+04   5.58e-48
  7.6621e+04   4.53e-48
  7.9767e+04   3.59e-48
  8.3042e+04   2.87e-48
  8.6451e+04   2.19e-48
  9.0000e+04   1.62e-48
