#  E [MeV]   Flux [# cm^{-2} s^{-1}  MeV^{-1}]
  3.0000e+04   8.93e-19
  3.0675e+04   8.65e-19
  3.1366e+04   8.37e-19
  3.2072e+04   8.10e-19
  3.2794e+04   7.84e-19
  3.3533e+04   7.59e-19
  3.4288e+04   7.34e-19
  3.5060e+04   7.10e-19
  3.5849e+04   6.87e-19
  3.6656e+04   6.64e-19
  3.7482e+04   6.42e-19
  3.8326e+04   6.20e-19
  3.9188e+04   6.00e-19
  4.0071e+04   5.79e-19
  4.0973e+04   5.60e-19
  4.1896e+04   5.41e-19
  4.2839e+04   5.22e-19
  4.3803e+04   5.04e-19
  4.4790e+04   4.87e-19
  4.5798e+04   4.70e-19
  4.6829e+04   4.54e-19
  4.7884e+04   4.38e-19
  4.8962e+04   4.23e-19
  5.0064e+04   4.08e-19
  5.1191e+04   3.93e-19
  5.2344e+04   3.79e-19
  5.3522e+04   3.66e-19
  5.4727e+04   3.53e-19
  5.5960e+04   3.40e-19
  5.7219e+04   3.28e-19
  5.8508e+04   3.16e-19
  5.9825e+04   3.04e-19
  6.1172e+04   2.93e-19
  6.2549e+04   2.82e-19
  6.3958e+04   2.72e-19
  6.5398e+04   2.62e-19
  6.6870e+04   2.52e-19
  6.8376e+04   2.42e-19
  6.9915e+04   2.33e-19
  7.1489e+04   2.24e-19
  7.3099e+04   2.16e-19
  7.4745e+04   2.07e-19
  7.6428e+04   1.99e-19
  7.8148e+04   1.91e-19
  7.9908e+04   1.84e-19
  8.1707e+04   1.77e-19
  8.3547e+04   1.70e-19
  8.5428e+04   1.63e-19
  8.7351e+04   1.57e-19
  8.9318e+04   1.50e-19
  9.1329e+04   1.44e-19
  9.3385e+04   1.39e-19
  9.5488e+04   1.33e-19
  9.7638e+04   1.27e-19
  9.9836e+04   1.22e-19
  1.0208e+05   1.17e-19
  1.0438e+05   1.12e-19
  1.0673e+05   1.08e-19
  1.0914e+05   1.03e-19
  1.1159e+05   9.89e-20
  1.1411e+05   9.48e-20
  1.1667e+05   9.08e-20
  1.1930e+05   8.69e-20
  1.2199e+05   8.32e-20
  1.2473e+05   7.96e-20
  1.2754e+05   7.62e-20
  1.3041e+05   7.29e-20
  1.3335e+05   6.97e-20
  1.3635e+05   6.66e-20
  1.3942e+05   6.36e-20
  1.4256e+05   6.08e-20
  1.4577e+05   5.81e-20
  1.4905e+05   5.55e-20
  1.5241e+05   5.30e-20
  1.5584e+05   5.05e-20
  1.5935e+05   4.82e-20
  1.6294e+05   4.61e-20
  1.6661e+05   4.39e-20
  1.7036e+05   4.19e-20
  1.7419e+05   3.99e-20
  1.7812e+05   3.80e-20
  1.8213e+05   3.63e-20
  1.8623e+05   3.46e-20
  1.9042e+05   3.29e-20
  1.9471e+05   3.13e-20
  1.9909e+05   2.98e-20
  2.0357e+05   2.84e-20
  2.0816e+05   2.70e-20
  2.1284e+05   2.57e-20
  2.1763e+05   2.44e-20
  2.2253e+05   2.32e-20
  2.2755e+05   2.20e-20
  2.3267e+05   2.09e-20
  2.3791e+05   1.99e-20
  2.4326e+05   1.89e-20
  2.4874e+05   1.79e-20
  2.5434e+05   1.70e-20
  2.6007e+05   1.61e-20
  2.6592e+05   1.53e-20
  2.7191e+05   1.45e-20
  2.7803e+05   1.37e-20
  2.8429e+05   1.30e-20
  2.9069e+05   1.23e-20
  2.9724e+05   1.16e-20
  3.0393e+05   1.10e-20
  3.1077e+05   1.04e-20
  3.1777e+05   9.82e-21
  3.2493e+05   9.28e-21
  3.3224e+05   8.77e-21
  3.3972e+05   8.28e-21
  3.4737e+05   7.80e-21
  3.5519e+05   7.36e-21
  3.6319e+05   6.95e-21
  3.7137e+05   6.55e-21
  3.7973e+05   6.17e-21
  3.8828e+05   5.81e-21
  3.9702e+05   5.46e-21
  4.0596e+05   5.15e-21
  4.1510e+05   4.85e-21
  4.2444e+05   4.56e-21
  4.3400e+05   4.28e-21
  4.4377e+05   4.02e-21
  4.5376e+05   3.78e-21
  4.6398e+05   3.56e-21
  4.7443e+05   3.34e-21
  4.8511e+05   3.13e-21
  4.9603e+05   2.93e-21
  5.0720e+05   2.75e-21
  5.1862e+05   2.58e-21
  5.3030e+05   2.42e-21
  5.4224e+05   2.26e-21
  5.5444e+05   2.11e-21
  5.6693e+05   1.97e-21
  5.7969e+05   1.85e-21
  5.9274e+05   1.73e-21
  6.0609e+05   1.61e-21
  6.1974e+05   1.50e-21
  6.3369e+05   1.40e-21
  6.4796e+05   1.31e-21
  6.6255e+05   1.22e-21
  6.7746e+05   1.14e-21
  6.9272e+05   1.06e-21
  7.0831e+05   9.89e-22
  7.2426e+05   9.25e-22
  7.4057e+05   8.63e-22
  7.5724e+05   8.03e-22
  7.7429e+05   7.46e-22
  7.9172e+05   6.94e-22
  8.0955e+05   6.48e-22
  8.2778e+05   6.05e-22
  8.4641e+05   5.63e-22
  8.6547e+05   5.23e-22
  8.8496e+05   4.85e-22
  9.0488e+05   4.54e-22
  9.2526e+05   4.24e-22
  9.4609e+05   3.95e-22
  9.6739e+05   3.67e-22
  9.8917e+05   3.41e-22
  1.0114e+06   3.20e-22
  1.0342e+06   3.00e-22
  1.0575e+06   2.81e-22
  1.0813e+06   2.62e-22
  1.1057e+06   2.44e-22
  1.1305e+06   2.30e-22
  1.1560e+06   2.17e-22
  1.1820e+06   2.04e-22
  1.2086e+06   1.92e-22
  1.2359e+06   1.81e-22
  1.2637e+06   1.71e-22
  1.2921e+06   1.63e-22
  1.3212e+06   1.55e-22
  1.3510e+06   1.47e-22
  1.3814e+06   1.40e-22
  1.4125e+06   1.33e-22
  1.4443e+06   1.28e-22
  1.4768e+06   1.23e-22
  1.5101e+06   1.18e-22
  1.5441e+06   1.14e-22
  1.5788e+06   1.10e-22
  1.6144e+06   1.08e-22
  1.6507e+06   1.06e-22
  1.6879e+06   1.03e-22
  1.7259e+06   1.01e-22
  1.7648e+06   9.95e-23
  1.8045e+06   9.96e-23
  1.8451e+06   9.96e-23
  1.8867e+06   9.96e-23
  1.9291e+06   9.95e-23
  1.9726e+06   9.94e-23
  2.0170e+06   1.03e-22
  2.0624e+06   1.07e-22
  2.1088e+06   1.10e-22
  2.1563e+06   1.13e-22
  2.2049e+06   1.16e-22
  2.2545e+06   1.20e-22
  2.3053e+06   1.25e-22
  2.3572e+06   1.29e-22
  2.4102e+06   1.33e-22
  2.4645e+06   1.37e-22
  2.5200e+06   1.20e-22
