#  E [MeV]   Flux [# cm^{-2} s^{-1}  MeV^{-1}]
  3.0000e+04   8.04e-25
  3.1051e+04   7.75e-25
  3.2139e+04   7.46e-25
  3.3266e+04   7.19e-25
  3.4432e+04   6.93e-25
  3.5638e+04   6.67e-25
  3.6887e+04   6.43e-25
  3.8180e+04   6.19e-25
  3.9518e+04   5.96e-25
  4.0903e+04   5.74e-25
  4.2336e+04   5.53e-25
  4.3820e+04   5.32e-25
  4.5355e+04   5.12e-25
  4.6945e+04   4.93e-25
  4.8590e+04   4.74e-25
  5.0293e+04   4.56e-25
  5.2055e+04   4.38e-25
  5.3879e+04   4.22e-25
  5.5767e+04   4.05e-25
  5.7722e+04   3.90e-25
  5.9745e+04   3.75e-25
  6.1838e+04   3.60e-25
  6.4005e+04   3.46e-25
  6.6248e+04   3.32e-25
  6.8570e+04   3.19e-25
  7.0973e+04   3.07e-25
  7.3460e+04   2.94e-25
  7.6034e+04   2.83e-25
  7.8699e+04   2.71e-25
  8.1457e+04   2.60e-25
  8.4311e+04   2.50e-25
  8.7266e+04   2.39e-25
  9.0324e+04   2.30e-25
  9.3490e+04   2.20e-25
  9.6766e+04   2.11e-25
  1.0016e+05   2.02e-25
  1.0367e+05   1.93e-25
  1.0730e+05   1.85e-25
  1.1106e+05   1.77e-25
  1.1495e+05   1.70e-25
  1.1898e+05   1.62e-25
  1.2315e+05   1.55e-25
  1.2747e+05   1.48e-25
  1.3193e+05   1.42e-25
  1.3656e+05   1.35e-25
  1.4134e+05   1.29e-25
  1.4629e+05   1.23e-25
  1.5142e+05   1.18e-25
  1.5673e+05   1.12e-25
  1.6222e+05   1.07e-25
  1.6790e+05   1.02e-25
  1.7379e+05   9.71e-26
  1.7988e+05   9.24e-26
  1.8618e+05   8.79e-26
  1.9271e+05   8.36e-26
  1.9946e+05   7.94e-26
  2.0645e+05   7.55e-26
  2.1369e+05   7.17e-26
  2.2117e+05   6.80e-26
  2.2892e+05   6.45e-26
  2.3695e+05   6.11e-26
  2.4525e+05   5.79e-26
  2.5385e+05   5.48e-26
  2.6274e+05   5.19e-26
  2.7195e+05   4.90e-26
  2.8148e+05   4.63e-26
  2.9134e+05   4.38e-26
  3.0155e+05   4.13e-26
  3.1212e+05   3.89e-26
  3.2306e+05   3.67e-26
  3.3438e+05   3.46e-26
  3.4610e+05   3.25e-26
  3.5823e+05   3.06e-26
  3.7078e+05   2.87e-26
  3.8377e+05   2.70e-26
  3.9722e+05   2.53e-26
  4.1114e+05   2.37e-26
  4.2555e+05   2.22e-26
  4.4046e+05   2.08e-26
  4.5590e+05   1.95e-26
  4.7188e+05   1.82e-26
  4.8841e+05   1.70e-26
  5.0553e+05   1.59e-26
  5.2324e+05   1.48e-26
  5.4158e+05   1.38e-26
  5.6056e+05   1.29e-26
  5.8020e+05   1.20e-26
  6.0054e+05   1.11e-26
  6.2158e+05   1.04e-26
  6.4337e+05   9.63e-27
  6.6591e+05   8.95e-27
  6.8925e+05   8.30e-27
  7.1340e+05   7.70e-27
  7.3840e+05   7.14e-27
  7.6428e+05   6.62e-27
  7.9106e+05   6.13e-27
  8.1878e+05   5.68e-27
  8.4748e+05   5.25e-27
  8.7718e+05   4.86e-27
  9.0792e+05   4.49e-27
  9.3973e+05   4.15e-27
  9.7267e+05   3.84e-27
  1.0068e+06   3.55e-27
  1.0420e+06   3.27e-27
  1.0785e+06   3.02e-27
  1.1163e+06   2.79e-27
  1.1555e+06   2.58e-27
  1.1960e+06   2.37e-27
  1.2379e+06   2.19e-27
  1.2813e+06   2.02e-27
  1.3262e+06   1.86e-27
  1.3726e+06   1.72e-27
  1.4207e+06   1.58e-27
  1.4705e+06   1.46e-27
  1.5220e+06   1.34e-27
  1.5754e+06   1.23e-27
  1.6306e+06   1.14e-27
  1.6877e+06   1.04e-27
  1.7469e+06   9.60e-28
  1.8081e+06   8.83e-28
  1.8715e+06   8.11e-28
  1.9370e+06   7.44e-28
  2.0049e+06   6.84e-28
  2.0752e+06   6.27e-28
  2.1479e+06   5.74e-28
  2.2232e+06   5.27e-28
  2.3011e+06   4.82e-28
  2.3817e+06   4.41e-28
  2.4652e+06   4.03e-28
  2.5516e+06   3.69e-28
  2.6410e+06   3.36e-28
  2.7336e+06   3.07e-28
  2.8294e+06   2.80e-28
  2.9285e+06   2.54e-28
  3.0311e+06   2.31e-28
  3.1374e+06   2.10e-28
  3.2473e+06   1.90e-28
  3.3611e+06   1.72e-28
  3.4789e+06   1.56e-28
  3.6008e+06   1.41e-28
  3.7270e+06   1.27e-28
  3.8576e+06   1.14e-28
  3.9928e+06   1.03e-28
  4.1327e+06   9.22e-29
  4.2775e+06   8.24e-29
  4.4274e+06   7.39e-29
  4.5826e+06   6.60e-29
  4.7432e+06   5.87e-29
  4.9094e+06   5.22e-29
  5.0815e+06   4.64e-29
  5.2595e+06   4.10e-29
  5.4438e+06   3.61e-29
  5.6346e+06   3.19e-29
  5.8321e+06   2.80e-29
  6.0365e+06   2.43e-29
  6.2480e+06   2.13e-29
  6.4670e+06   1.86e-29
  6.6936e+06   1.60e-29
  6.9282e+06   1.38e-29
  7.1709e+06   1.19e-29
  7.4222e+06   1.02e-29
  7.6823e+06   8.69e-30
  7.9516e+06   7.42e-30
  8.2302e+06   6.27e-30
  8.5186e+06   5.23e-30
  8.8172e+06   4.42e-30
  9.1262e+06   3.68e-30
  9.4460e+06   3.03e-30
  9.7770e+06   2.50e-30
  1.0120e+07   2.05e-30
  1.0474e+07   1.66e-30
  1.0841e+07   1.33e-30
  1.1221e+07   1.07e-30
  1.1614e+07   8.42e-31
  1.2022e+07   6.51e-31
  1.2443e+07   5.10e-31
  1.2879e+07   3.91e-31
  1.3330e+07   2.93e-31
  1.3797e+07   2.19e-31
  1.4281e+07   1.62e-31
  1.4781e+07   1.17e-31
  1.5299e+07   8.23e-32
  1.5835e+07   5.82e-32
  1.6390e+07   3.98e-32
  1.6965e+07   2.61e-32
  1.7559e+07   1.73e-32
  1.8175e+07   1.10e-32
  1.8812e+07   6.63e-33
  1.9471e+07   3.92e-33
  2.0153e+07   2.24e-33
  2.0859e+07   1.20e-33
  2.1590e+07   6.04e-34
  2.2347e+07   2.93e-34
  2.3130e+07   1.30e-34
  2.3941e+07   5.20e-35
  2.4780e+07   1.94e-35
  2.5648e+07   6.38e-36
  2.6547e+07   1.78e-36
  2.7477e+07   4.30e-37
  2.8440e+07   8.73e-38
