#  E [GeV]   # per interaction  [GeV^{-1}]
  3.0000e+01   2.23e-02
  3.1051e+01   2.15e-02
  3.2139e+01   2.07e-02
  3.3266e+01   1.99e-02
  3.4432e+01   1.91e-02
  3.5638e+01   1.84e-02
  3.6887e+01   1.77e-02
  3.8180e+01   1.70e-02
  3.9518e+01   1.63e-02
  4.0903e+01   1.57e-02
  4.2336e+01   1.50e-02
  4.3820e+01   1.44e-02
  4.5355e+01   1.39e-02
  4.6945e+01   1.33e-02
  4.8590e+01   1.28e-02
  5.0293e+01   1.22e-02
  5.2055e+01   1.17e-02
  5.3879e+01   1.13e-02
  5.5767e+01   1.08e-02
  5.7722e+01   1.03e-02
  5.9745e+01   9.90e-03
  6.1838e+01   9.48e-03
  6.4005e+01   9.08e-03
  6.6248e+01   8.69e-03
  6.8570e+01   8.32e-03
  7.0973e+01   7.96e-03
  7.3460e+01   7.61e-03
  7.6034e+01   7.28e-03
  7.8699e+01   6.96e-03
  8.1457e+01   6.65e-03
  8.4311e+01   6.36e-03
  8.7266e+01   6.07e-03
  9.0324e+01   5.80e-03
  9.3490e+01   5.53e-03
  9.6766e+01   5.28e-03
  1.0016e+02   5.04e-03
  1.0367e+02   4.81e-03
  1.0730e+02   4.58e-03
  1.1106e+02   4.37e-03
  1.1495e+02   4.16e-03
  1.1898e+02   3.96e-03
  1.2315e+02   3.78e-03
  1.2747e+02   3.59e-03
  1.3193e+02   3.42e-03
  1.3656e+02   3.25e-03
  1.4134e+02   3.09e-03
  1.4629e+02   2.94e-03
  1.5142e+02   2.80e-03
  1.5673e+02   2.66e-03
  1.6222e+02   2.52e-03
  1.6790e+02   2.39e-03
  1.7379e+02   2.27e-03
  1.7988e+02   2.15e-03
  1.8618e+02   2.04e-03
  1.9271e+02   1.93e-03
  1.9946e+02   1.83e-03
  2.0645e+02   1.73e-03
  2.1369e+02   1.64e-03
  2.2117e+02   1.55e-03
  2.2892e+02   1.46e-03
  2.3695e+02   1.38e-03
  2.4525e+02   1.31e-03
  2.5385e+02   1.23e-03
  2.6274e+02   1.16e-03
  2.7195e+02   1.09e-03
  2.8148e+02   1.03e-03
  2.9134e+02   9.69e-04
  3.0155e+02   9.11e-04
  3.1212e+02   8.57e-04
  3.2306e+02   8.05e-04
  3.3438e+02   7.55e-04
  3.4610e+02   7.09e-04
  3.5823e+02   6.64e-04
  3.7078e+02   6.22e-04
  3.8377e+02   5.83e-04
  3.9722e+02   5.45e-04
  4.1114e+02   5.09e-04
  4.2555e+02   4.76e-04
  4.4046e+02   4.44e-04
  4.5590e+02   4.15e-04
  4.7188e+02   3.87e-04
  4.8841e+02   3.60e-04
  5.0553e+02   3.36e-04
  5.2324e+02   3.12e-04
  5.4158e+02   2.91e-04
  5.6056e+02   2.71e-04
  5.8020e+02   2.52e-04
  6.0054e+02   2.34e-04
  6.2158e+02   2.17e-04
  6.4337e+02   2.02e-04
  6.6591e+02   1.88e-04
  6.8925e+02   1.74e-04
  7.1340e+02   1.62e-04
  7.3840e+02   1.50e-04
  7.6428e+02   1.40e-04
  7.9106e+02   1.30e-04
  8.1878e+02   1.20e-04
  8.4748e+02   1.12e-04
  8.7718e+02   1.04e-04
  9.0792e+02   9.66e-05
  9.3973e+02   8.98e-05
  9.7267e+02   8.36e-05
  1.0068e+03   7.78e-05
  1.0420e+03   7.24e-05
  1.0785e+03   6.75e-05
  1.1163e+03   6.29e-05
  1.1555e+03   5.87e-05
  1.1960e+03   5.48e-05
  1.2379e+03   5.12e-05
  1.2813e+03   4.78e-05
  1.3262e+03   4.47e-05
  1.3726e+03   4.18e-05
  1.4207e+03   3.92e-05
  1.4705e+03   3.67e-05
  1.5220e+03   3.44e-05
  1.5754e+03   3.23e-05
  1.6306e+03   3.03e-05
  1.6877e+03   2.85e-05
  1.7469e+03   2.68e-05
  1.8081e+03   2.52e-05
  1.8715e+03   2.37e-05
  1.9370e+03   2.23e-05
  2.0049e+03   2.11e-05
  2.0752e+03   1.99e-05
  2.1479e+03   1.87e-05
  2.2232e+03   1.77e-05
  2.3011e+03   1.67e-05
  2.3817e+03   1.58e-05
  2.4652e+03   1.49e-05
  2.5516e+03   1.40e-05
  2.6410e+03   1.33e-05
  2.7336e+03   1.25e-05
  2.8294e+03   1.18e-05
  2.9285e+03   1.12e-05
  3.0311e+03   1.05e-05
  3.1374e+03   9.95e-06
  3.2473e+03   9.39e-06
  3.3611e+03   8.85e-06
  3.4789e+03   8.35e-06
  3.6008e+03   7.87e-06
  3.7270e+03   7.40e-06
  3.8576e+03   6.97e-06
  3.9928e+03   6.55e-06
  4.1327e+03   6.15e-06
  4.2775e+03   5.77e-06
  4.4274e+03   5.41e-06
  4.5826e+03   5.06e-06
  4.7432e+03   4.73e-06
  4.9094e+03   4.41e-06
  5.0815e+03   4.11e-06
  5.2595e+03   3.82e-06
  5.4438e+03   3.54e-06
  5.6346e+03   3.27e-06
  5.8321e+03   3.02e-06
  6.0365e+03   2.78e-06
  6.2480e+03   2.55e-06
  6.4670e+03   2.33e-06
  6.6936e+03   2.13e-06
  6.9282e+03   1.93e-06
  7.1709e+03   1.75e-06
  7.4222e+03   1.58e-06
  7.6823e+03   1.41e-06
  7.9516e+03   1.26e-06
  8.2302e+03   1.12e-06
  8.5186e+03   9.91e-07
  8.8172e+03   8.70e-07
  9.1262e+03   7.59e-07
  9.4460e+03   6.57e-07
  9.7770e+03   5.64e-07
  1.0120e+04   4.80e-07
  1.0474e+04   4.05e-07
  1.0841e+04   3.38e-07
  1.1221e+04   2.78e-07
  1.1614e+04   2.27e-07
  1.2022e+04   1.82e-07
  1.2443e+04   1.44e-07
  1.2879e+04   1.12e-07
  1.3330e+04   8.60e-08
  1.3797e+04   6.44e-08
  1.4281e+04   4.73e-08
  1.4781e+04   3.38e-08
  1.5299e+04   2.36e-08
  1.5835e+04   1.59e-08
  1.6390e+04   1.04e-08
  1.6965e+04   6.57e-09
  1.7559e+04   3.97e-09
  1.8175e+04   2.29e-09
  1.8812e+04   1.25e-09
  1.9471e+04   6.44e-10
  2.0153e+04   3.10e-10
  2.0859e+04   1.38e-10
  2.1590e+04   5.64e-11
  2.2347e+04   2.09e-11
  2.3130e+04   6.90e-12
  2.3941e+04   2.00e-12
  2.4780e+04   4.99e-13
  2.5648e+04   1.05e-13
  2.6547e+04   1.80e-14
  2.7477e+04   2.47e-15
  2.8440e+04   2.58e-16
