#  E [MeV]   Flux [# cm^{-2} s^{-1}  MeV^{-1}]
  3.0000e+04   1.15e-25
  3.1232e+04   1.10e-25
  3.2514e+04   1.05e-25
  3.3849e+04   9.98e-26
  3.5238e+04   9.50e-26
  3.6685e+04   9.05e-26
  3.8191e+04   8.62e-26
  3.9759e+04   8.21e-26
  4.1391e+04   7.82e-26
  4.3090e+04   7.44e-26
  4.4859e+04   7.08e-26
  4.6701e+04   6.74e-26
  4.8618e+04   6.41e-26
  5.0614e+04   6.10e-26
  5.2692e+04   5.80e-26
  5.4855e+04   5.52e-26
  5.7107e+04   5.24e-26
  5.9451e+04   4.99e-26
  6.1892e+04   4.74e-26
  6.4433e+04   4.50e-26
  6.7078e+04   4.28e-26
  6.9832e+04   4.06e-26
  7.2699e+04   3.86e-26
  7.5683e+04   3.66e-26
  7.8790e+04   3.48e-26
  8.2025e+04   3.30e-26
  8.5392e+04   3.13e-26
  8.8898e+04   2.97e-26
  9.2547e+04   2.82e-26
  9.6347e+04   2.67e-26
  1.0030e+05   2.53e-26
  1.0442e+05   2.40e-26
  1.0871e+05   2.28e-26
  1.1317e+05   2.16e-26
  1.1782e+05   2.04e-26
  1.2265e+05   1.93e-26
  1.2769e+05   1.83e-26
  1.3293e+05   1.73e-26
  1.3839e+05   1.64e-26
  1.4407e+05   1.55e-26
  1.4998e+05   1.47e-26
  1.5614e+05   1.39e-26
  1.6255e+05   1.31e-26
  1.6922e+05   1.24e-26
  1.7617e+05   1.17e-26
  1.8340e+05   1.11e-26
  1.9093e+05   1.05e-26
  1.9877e+05   9.87e-27
  2.0693e+05   9.32e-27
  2.1543e+05   8.79e-27
  2.2427e+05   8.29e-27
  2.3348e+05   7.81e-27
  2.4306e+05   7.36e-27
  2.5304e+05   6.93e-27
  2.6343e+05   6.53e-27
  2.7424e+05   6.14e-27
  2.8550e+05   5.78e-27
  2.9722e+05   5.43e-27
  3.0942e+05   5.10e-27
  3.2213e+05   4.79e-27
  3.3535e+05   4.50e-27
  3.4912e+05   4.22e-27
  3.6345e+05   3.96e-27
  3.7837e+05   3.71e-27
  3.9390e+05   3.48e-27
  4.1008e+05   3.26e-27
  4.2691e+05   3.05e-27
  4.4444e+05   2.85e-27
  4.6268e+05   2.66e-27
  4.8168e+05   2.49e-27
  5.0145e+05   2.32e-27
  5.2204e+05   2.17e-27
  5.4347e+05   2.02e-27
  5.6578e+05   1.89e-27
  5.8901e+05   1.76e-27
  6.1319e+05   1.64e-27
  6.3836e+05   1.52e-27
  6.6457e+05   1.42e-27
  6.9185e+05   1.32e-27
  7.2025e+05   1.22e-27
  7.4982e+05   1.14e-27
  7.8061e+05   1.06e-27
  8.1265e+05   9.80e-28
  8.4601e+05   9.09e-28
  8.8075e+05   8.43e-28
  9.1690e+05   7.81e-28
  9.5455e+05   7.24e-28
  9.9373e+05   6.70e-28
  1.0345e+06   6.21e-28
  1.0770e+06   5.74e-28
  1.1212e+06   5.31e-28
  1.1672e+06   4.91e-28
  1.2152e+06   4.53e-28
  1.2650e+06   4.19e-28
  1.3170e+06   3.87e-28
  1.3711e+06   3.58e-28
  1.4273e+06   3.31e-28
  1.4859e+06   3.05e-28
  1.5469e+06   2.82e-28
  1.6104e+06   2.61e-28
  1.6766e+06   2.41e-28
  1.7454e+06   2.22e-28
  1.8170e+06   2.05e-28
  1.8916e+06   1.89e-28
  1.9693e+06   1.75e-28
  2.0501e+06   1.61e-28
  2.1343e+06   1.49e-28
  2.2219e+06   1.37e-28
  2.3131e+06   1.26e-28
  2.4081e+06   1.16e-28
  2.5070e+06   1.07e-28
  2.6099e+06   9.78e-29
  2.7170e+06   8.97e-29
  2.8286e+06   8.23e-29
  2.9447e+06   7.53e-29
  3.0656e+06   6.89e-29
  3.1914e+06   6.30e-29
  3.3225e+06   5.74e-29
  3.4589e+06   5.23e-29
  3.6008e+06   4.76e-29
  3.7487e+06   4.33e-29
  3.9026e+06   3.92e-29
  4.0628e+06   3.56e-29
  4.2296e+06   3.21e-29
  4.4032e+06   2.90e-29
  4.5840e+06   2.61e-29
  4.7722e+06   2.35e-29
  4.9681e+06   2.10e-29
  5.1720e+06   1.88e-29
  5.3844e+06   1.68e-29
  5.6054e+06   1.49e-29
  5.8355e+06   1.33e-29
  6.0751e+06   1.17e-29
  6.3245e+06   1.03e-29
  6.5841e+06   9.09e-30
  6.8544e+06   7.94e-30
  7.1358e+06   6.95e-30
  7.4288e+06   6.04e-30
  7.7338e+06   5.22e-30
  8.0513e+06   4.51e-30
  8.3818e+06   3.86e-30
  8.7259e+06   3.29e-30
  9.0841e+06   2.80e-30
  9.4571e+06   2.35e-30
  9.8453e+06   1.97e-30
  1.0249e+07   1.64e-30
  1.0670e+07   1.35e-30
  1.1108e+07   1.11e-30
  1.1564e+07   9.03e-31
  1.2039e+07   7.23e-31
  1.2533e+07   5.77e-31
  1.3048e+07   4.55e-31
  1.3584e+07   3.51e-31
  1.4141e+07   2.70e-31
  1.4722e+07   2.04e-31
  1.5326e+07   1.50e-31
  1.5955e+07   1.10e-31
  1.6610e+07   7.81e-32
  1.7292e+07   5.38e-32
  1.8002e+07   3.66e-32
  1.8741e+07   2.38e-32
  1.9511e+07   1.49e-32
  2.0312e+07   9.07e-33
  2.1145e+07   5.20e-33
  2.2013e+07   2.82e-33
  2.2917e+07   1.44e-33
  2.3858e+07   6.76e-34
  2.4837e+07   2.91e-34
  2.5857e+07   1.13e-34
  2.6919e+07   3.81e-35
  2.8024e+07   1.11e-35
  2.9174e+07   2.70e-36
  3.0372e+07   5.15e-37
  3.1619e+07   7.61e-38
  3.2917e+07   7.96e-39
  3.4268e+07   5.37e-40
  3.5675e+07   2.22e-41
  3.7140e+07   4.67e-43
  3.8664e+07   4.21e-45
  4.0252e+07   1.35e-47
  4.1904e+07   1.08e-50
  4.3624e+07   1.44e-54
  4.5415e+07   1.88e-59
  4.7280e+07   1.09e-65
  4.9221e+07   1.47e-72
  5.1241e+07   1.30e-72
  5.3345e+07   1.14e-72
  5.5535e+07   1.00e-72
  5.7815e+07   8.96e-73
  6.0188e+07   7.96e-73
  6.2659e+07   7.13e-73
  6.5232e+07   6.40e-73
  6.7910e+07   5.72e-73
  7.0698e+07   5.12e-73
  7.3600e+07   4.58e-73
  7.6621e+07   4.07e-73
  7.9767e+07   3.58e-73
  8.3042e+07   3.13e-73
  8.6451e+07   2.71e-73
  9.0000e+07   2.36e-73
