#  E [MeV]   Flux [# cm^{-2} s^{-1}  MeV^{-1}]
  3.0000e+04   2.37e-25
  3.1051e+04   2.29e-25
  3.2139e+04   2.20e-25
  3.3266e+04   2.12e-25
  3.4432e+04   2.04e-25
  3.5638e+04   1.96e-25
  3.6887e+04   1.88e-25
  3.8180e+04   1.81e-25
  3.9518e+04   1.74e-25
  4.0903e+04   1.67e-25
  4.2336e+04   1.61e-25
  4.3820e+04   1.54e-25
  4.5355e+04   1.48e-25
  4.6945e+04   1.42e-25
  4.8590e+04   1.37e-25
  5.0293e+04   1.31e-25
  5.2055e+04   1.26e-25
  5.3879e+04   1.21e-25
  5.5767e+04   1.16e-25
  5.7722e+04   1.11e-25
  5.9745e+04   1.06e-25
  6.1838e+04   1.02e-25
  6.4005e+04   9.78e-26
  6.6248e+04   9.37e-26
  6.8570e+04   8.97e-26
  7.0973e+04   8.59e-26
  7.3460e+04   8.23e-26
  7.6034e+04   7.88e-26
  7.8699e+04   7.54e-26
  8.1457e+04   7.21e-26
  8.4311e+04   6.90e-26
  8.7266e+04   6.60e-26
  9.0324e+04   6.31e-26
  9.3490e+04   6.03e-26
  9.6766e+04   5.76e-26
  1.0016e+05   5.51e-26
  1.0367e+05   5.26e-26
  1.0730e+05   5.02e-26
  1.1106e+05   4.80e-26
  1.1495e+05   4.58e-26
  1.1898e+05   4.37e-26
  1.2315e+05   4.17e-26
  1.2747e+05   3.98e-26
  1.3193e+05   3.79e-26
  1.3656e+05   3.62e-26
  1.4134e+05   3.45e-26
  1.4629e+05   3.29e-26
  1.5142e+05   3.13e-26
  1.5673e+05   2.98e-26
  1.6222e+05   2.84e-26
  1.6790e+05   2.71e-26
  1.7379e+05   2.58e-26
  1.7988e+05   2.45e-26
  1.8618e+05   2.33e-26
  1.9271e+05   2.22e-26
  1.9946e+05   2.11e-26
  2.0645e+05   2.01e-26
  2.1369e+05   1.91e-26
  2.2117e+05   1.81e-26
  2.2892e+05   1.72e-26
  2.3695e+05   1.64e-26
  2.4525e+05   1.56e-26
  2.5385e+05   1.48e-26
  2.6274e+05   1.40e-26
  2.7195e+05   1.33e-26
  2.8148e+05   1.27e-26
  2.9134e+05   1.20e-26
  3.0155e+05   1.14e-26
  3.1212e+05   1.08e-26
  3.2306e+05   1.03e-26
  3.3438e+05   9.73e-27
  3.4610e+05   9.23e-27
  3.5823e+05   8.75e-27
  3.7078e+05   8.30e-27
  3.8377e+05   7.87e-27
  3.9722e+05   7.46e-27
  4.1114e+05   7.07e-27
  4.2555e+05   6.70e-27
  4.4046e+05   6.34e-27
  4.5590e+05   6.01e-27
  4.7188e+05   5.69e-27
  4.8841e+05   5.39e-27
  5.0553e+05   5.10e-27
  5.2324e+05   4.83e-27
  5.4158e+05   4.57e-27
  5.6056e+05   4.33e-27
  5.8020e+05   4.10e-27
  6.0054e+05   3.88e-27
  6.2158e+05   3.67e-27
  6.4337e+05   3.48e-27
  6.6591e+05   3.29e-27
  6.8925e+05   3.12e-27
  7.1340e+05   2.95e-27
  7.3840e+05   2.79e-27
  7.6428e+05   2.64e-27
  7.9106e+05   2.50e-27
  8.1878e+05   2.37e-27
  8.4748e+05   2.24e-27
  8.7718e+05   2.12e-27
  9.0792e+05   2.01e-27
  9.3973e+05   1.91e-27
  9.7267e+05   1.80e-27
  1.0068e+06   1.71e-27
  1.0420e+06   1.62e-27
  1.0785e+06   1.54e-27
  1.1163e+06   1.46e-27
  1.1555e+06   1.38e-27
  1.1960e+06   1.31e-27
  1.2379e+06   1.24e-27
  1.2813e+06   1.18e-27
  1.3262e+06   1.12e-27
  1.3726e+06   1.06e-27
  1.4207e+06   1.01e-27
  1.4705e+06   9.56e-28
  1.5220e+06   9.08e-28
  1.5754e+06   8.62e-28
  1.6306e+06   8.19e-28
  1.6877e+06   7.78e-28
  1.7469e+06   7.39e-28
  1.8081e+06   7.03e-28
  1.8715e+06   6.69e-28
  1.9370e+06   6.36e-28
  2.0049e+06   6.05e-28
  2.0752e+06   5.76e-28
  2.1479e+06   5.49e-28
  2.2232e+06   5.22e-28
  2.3011e+06   4.98e-28
  2.3817e+06   4.75e-28
  2.4652e+06   4.52e-28
  2.5516e+06   4.31e-28
  2.6410e+06   4.11e-28
  2.7336e+06   3.92e-28
  2.8294e+06   3.74e-28
  2.9285e+06   3.56e-28
  3.0311e+06   3.40e-28
  3.1374e+06   3.24e-28
  3.2473e+06   3.10e-28
  3.3611e+06   2.96e-28
  3.4789e+06   2.82e-28
  3.6008e+06   2.69e-28
  3.7270e+06   2.57e-28
  3.8576e+06   2.46e-28
  3.9928e+06   2.35e-28
  4.1327e+06   2.24e-28
  4.2775e+06   2.14e-28
  4.4274e+06   2.05e-28
  4.5826e+06   1.96e-28
  4.7432e+06   1.87e-28
  4.9094e+06   1.79e-28
  5.0815e+06   1.71e-28
  5.2595e+06   1.63e-28
  5.4438e+06   1.56e-28
  5.6346e+06   1.49e-28
  5.8321e+06   1.42e-28
  6.0365e+06   1.35e-28
  6.2480e+06   1.29e-28
  6.4670e+06   1.23e-28
  6.6936e+06   1.17e-28
  6.9282e+06   1.12e-28
  7.1709e+06   1.07e-28
  7.4222e+06   1.02e-28
  7.6823e+06   9.67e-29
  7.9516e+06   9.20e-29
  8.2302e+06   8.76e-29
  8.5186e+06   8.32e-29
  8.8172e+06   7.91e-29
  9.1262e+06   7.52e-29
  9.4460e+06   7.13e-29
  9.7770e+06   6.77e-29
  1.0120e+07   6.42e-29
  1.0474e+07   6.08e-29
  1.0841e+07   5.75e-29
  1.1221e+07   5.44e-29
  1.1614e+07   5.14e-29
  1.2022e+07   4.84e-29
  1.2443e+07   4.56e-29
  1.2879e+07   4.29e-29
  1.3330e+07   4.03e-29
  1.3797e+07   3.78e-29
  1.4281e+07   3.54e-29
  1.4781e+07   3.31e-29
  1.5299e+07   3.09e-29
  1.5835e+07   2.88e-29
  1.6390e+07   2.67e-29
  1.6965e+07   2.48e-29
  1.7559e+07   2.29e-29
  1.8175e+07   2.11e-29
  1.8812e+07   1.94e-29
  1.9471e+07   1.77e-29
  2.0153e+07   1.61e-29
  2.0859e+07   1.46e-29
  2.1590e+07   1.32e-29
  2.2347e+07   1.18e-29
  2.3130e+07   1.05e-29
  2.3941e+07   9.24e-30
  2.4780e+07   8.07e-30
  2.5648e+07   6.96e-30
  2.6547e+07   5.92e-30
  2.7477e+07   4.96e-30
  2.8440e+07   4.09e-30
