#  E [MeV]   Flux [# cm^{-2} s^{-1}  MeV^{-1}]
  3.0000e+04   3.23e-25
  3.1141e+04   3.08e-25
  3.2326e+04   2.95e-25
  3.3556e+04   2.81e-25
  3.4832e+04   2.69e-25
  3.6157e+04   2.57e-25
  3.7533e+04   2.45e-25
  3.8961e+04   2.34e-25
  4.0443e+04   2.23e-25
  4.1982e+04   2.13e-25
  4.3579e+04   2.03e-25
  4.5237e+04   1.94e-25
  4.6958e+04   1.85e-25
  4.8744e+04   1.76e-25
  5.0598e+04   1.68e-25
  5.2523e+04   1.60e-25
  5.4521e+04   1.52e-25
  5.6596e+04   1.45e-25
  5.8749e+04   1.38e-25
  6.0984e+04   1.32e-25
  6.3304e+04   1.26e-25
  6.5712e+04   1.20e-25
  6.8212e+04   1.14e-25
  7.0807e+04   1.08e-25
  7.3500e+04   1.03e-25
  7.6297e+04   9.82e-26
  7.9199e+04   9.34e-26
  8.2212e+04   8.89e-26
  8.5340e+04   8.45e-26
  8.8586e+04   8.04e-26
  9.1956e+04   7.64e-26
  9.5455e+04   7.26e-26
  9.9086e+04   6.90e-26
  1.0286e+05   6.56e-26
  1.0677e+05   6.23e-26
  1.1083e+05   5.92e-26
  1.1505e+05   5.62e-26
  1.1942e+05   5.34e-26
  1.2397e+05   5.07e-26
  1.2868e+05   4.81e-26
  1.3358e+05   4.56e-26
  1.3866e+05   4.33e-26
  1.4394e+05   4.11e-26
  1.4941e+05   3.89e-26
  1.5509e+05   3.69e-26
  1.6100e+05   3.50e-26
  1.6712e+05   3.31e-26
  1.7348e+05   3.14e-26
  1.8008e+05   2.97e-26
  1.8693e+05   2.81e-26
  1.9404e+05   2.66e-26
  2.0142e+05   2.52e-26
  2.0908e+05   2.38e-26
  2.1704e+05   2.25e-26
  2.2529e+05   2.12e-26
  2.3387e+05   2.01e-26
  2.4276e+05   1.89e-26
  2.5200e+05   1.79e-26
  2.6158e+05   1.68e-26
  2.7154e+05   1.59e-26
  2.8187e+05   1.49e-26
  2.9259e+05   1.41e-26
  3.0372e+05   1.32e-26
  3.1527e+05   1.24e-26
  3.2727e+05   1.17e-26
  3.3972e+05   1.10e-26
  3.5264e+05   1.03e-26
  3.6606e+05   9.66e-27
  3.7998e+05   9.05e-27
  3.9444e+05   8.47e-27
  4.0945e+05   7.92e-27
  4.2502e+05   7.40e-27
  4.4119e+05   6.92e-27
  4.5798e+05   6.45e-27
  4.7540e+05   6.02e-27
  4.9348e+05   5.60e-27
  5.1226e+05   5.22e-27
  5.3175e+05   4.85e-27
  5.5198e+05   4.51e-27
  5.7297e+05   4.18e-27
  5.9477e+05   3.88e-27
  6.1740e+05   3.60e-27
  6.4089e+05   3.33e-27
  6.6527e+05   3.08e-27
  6.9058e+05   2.85e-27
  7.1685e+05   2.63e-27
  7.4412e+05   2.43e-27
  7.7243e+05   2.24e-27
  8.0181e+05   2.07e-27
  8.3232e+05   1.91e-27
  8.6398e+05   1.77e-27
  8.9685e+05   1.63e-27
  9.3097e+05   1.50e-27
  9.6638e+05   1.39e-27
  1.0031e+06   1.28e-27
  1.0413e+06   1.18e-27
  1.0809e+06   1.09e-27
  1.1220e+06   1.00e-27
  1.1647e+06   9.24e-28
  1.2090e+06   8.51e-28
  1.2550e+06   7.84e-28
  1.3028e+06   7.22e-28
  1.3523e+06   6.64e-28
  1.4038e+06   6.11e-28
  1.4572e+06   5.62e-28
  1.5126e+06   5.17e-28
  1.5702e+06   4.75e-28
  1.6299e+06   4.36e-28
  1.6919e+06   4.01e-28
  1.7563e+06   3.68e-28
  1.8231e+06   3.38e-28
  1.8925e+06   3.09e-28
  1.9645e+06   2.84e-28
  2.0392e+06   2.60e-28
  2.1168e+06   2.38e-28
  2.1973e+06   2.17e-28
  2.2809e+06   1.99e-28
  2.3677e+06   1.81e-28
  2.4577e+06   1.65e-28
  2.5512e+06   1.51e-28
  2.6483e+06   1.37e-28
  2.7490e+06   1.24e-28
  2.8536e+06   1.13e-28
  2.9622e+06   1.02e-28
  3.0749e+06   9.25e-29
  3.1918e+06   8.36e-29
  3.3133e+06   7.54e-29
  3.4393e+06   6.78e-29
  3.5702e+06   6.10e-29
  3.7060e+06   5.47e-29
  3.8470e+06   4.89e-29
  3.9933e+06   4.38e-29
  4.1452e+06   3.90e-29
  4.3029e+06   3.46e-29
  4.4666e+06   3.08e-29
  4.6366e+06   2.73e-29
  4.8129e+06   2.40e-29
  4.9960e+06   2.12e-29
  5.1861e+06   1.86e-29
  5.3834e+06   1.62e-29
  5.5882e+06   1.42e-29
  5.8008e+06   1.23e-29
  6.0215e+06   1.06e-29
  6.2506e+06   9.18e-30
  6.4883e+06   7.89e-30
  6.7352e+06   6.71e-30
  6.9914e+06   5.75e-30
  7.2574e+06   4.88e-30
  7.5335e+06   4.10e-30
  7.8201e+06   3.46e-30
  8.1176e+06   2.90e-30
  8.4264e+06   2.39e-30
  8.7470e+06   1.99e-30
  9.0797e+06   1.64e-30
  9.4251e+06   1.33e-30
  9.7837e+06   1.08e-30
  1.0156e+07   8.67e-31
  1.0542e+07   6.86e-31
  1.0943e+07   5.42e-31
  1.1360e+07   4.26e-31
  1.1792e+07   3.27e-31
  1.2240e+07   2.50e-31
  1.2706e+07   1.90e-31
  1.3189e+07   1.41e-31
  1.3691e+07   1.03e-31
  1.4212e+07   7.50e-32
  1.4753e+07   5.29e-32
  1.5314e+07   3.65e-32
  1.5897e+07   2.51e-32
  1.6501e+07   1.65e-32
  1.7129e+07   1.06e-32
  1.7781e+07   6.67e-33
  1.8457e+07   4.01e-33
  1.9159e+07   2.30e-33
  1.9888e+07   1.29e-33
  2.0645e+07   6.75e-34
  2.1430e+07   3.29e-34
  2.2245e+07   1.54e-34
  2.3092e+07   6.58e-35
  2.3970e+07   2.51e-35
  2.4882e+07   8.91e-36
  2.5829e+07   2.74e-36
  2.6811e+07   7.15e-37
  2.7831e+07   1.59e-37
  2.8890e+07   2.84e-38
  2.9989e+07   3.87e-39
  3.1130e+07   3.94e-40
  3.2314e+07   2.74e-41
  3.3544e+07   1.19e-42
  3.4820e+07   2.98e-44
  3.6144e+07   3.72e-46
  3.7519e+07   1.95e-48
  3.8947e+07   3.48e-51
  4.0428e+07   1.61e-54
  4.1966e+07   1.33e-58
  4.3563e+07   1.23e-63
  4.5220e+07   6.86e-70
  4.6941e+07   1.66e-72
  4.8726e+07   1.46e-72
  5.0580e+07   1.30e-72
