#  E [MeV]   Flux [# cm^{-2} s^{-1}  MeV^{-1}]
  3.0000e+04   3.23e-27
  3.1232e+04   3.10e-27
  3.2514e+04   2.98e-27
  3.3849e+04   2.86e-27
  3.5238e+04   2.75e-27
  3.6685e+04   2.64e-27
  3.8191e+04   2.54e-27
  3.9759e+04   2.44e-27
  4.1391e+04   2.34e-27
  4.3090e+04   2.24e-27
  4.4859e+04   2.15e-27
  4.6701e+04   2.06e-27
  4.8618e+04   1.98e-27
  5.0614e+04   1.90e-27
  5.2692e+04   1.82e-27
  5.4855e+04   1.74e-27
  5.7107e+04   1.67e-27
  5.9451e+04   1.60e-27
  6.1892e+04   1.53e-27
  6.4433e+04   1.46e-27
  6.7078e+04   1.40e-27
  6.9832e+04   1.34e-27
  7.2699e+04   1.28e-27
  7.5683e+04   1.23e-27
  7.8790e+04   1.17e-27
  8.2025e+04   1.12e-27
  8.5392e+04   1.07e-27
  8.8898e+04   1.02e-27
  9.2547e+04   9.75e-28
  9.6347e+04   9.30e-28
  1.0030e+05   8.87e-28
  1.0442e+05   8.46e-28
  1.0871e+05   8.07e-28
  1.1317e+05   7.69e-28
  1.1782e+05   7.32e-28
  1.2265e+05   6.97e-28
  1.2769e+05   6.64e-28
  1.3293e+05   6.32e-28
  1.3839e+05   6.01e-28
  1.4407e+05   5.71e-28
  1.4998e+05   5.42e-28
  1.5614e+05   5.15e-28
  1.6255e+05   4.89e-28
  1.6922e+05   4.64e-28
  1.7617e+05   4.40e-28
  1.8340e+05   4.16e-28
  1.9093e+05   3.94e-28
  1.9877e+05   3.73e-28
  2.0693e+05   3.53e-28
  2.1543e+05   3.34e-28
  2.2427e+05   3.15e-28
  2.3348e+05   2.98e-28
  2.4306e+05   2.81e-28
  2.5304e+05   2.65e-28
  2.6343e+05   2.49e-28
  2.7424e+05   2.35e-28
  2.8550e+05   2.21e-28
  2.9722e+05   2.07e-28
  3.0942e+05   1.95e-28
  3.2213e+05   1.83e-28
  3.3535e+05   1.71e-28
  3.4912e+05   1.60e-28
  3.6345e+05   1.50e-28
  3.7837e+05   1.40e-28
  3.9390e+05   1.31e-28
  4.1008e+05   1.22e-28
  4.2691e+05   1.14e-28
  4.4444e+05   1.06e-28
  4.6268e+05   9.86e-29
  4.8168e+05   9.17e-29
  5.0145e+05   8.51e-29
  5.2204e+05   7.90e-29
  5.4347e+05   7.33e-29
  5.6578e+05   6.79e-29
  5.8901e+05   6.29e-29
  6.1319e+05   5.82e-29
  6.3836e+05   5.38e-29
  6.6457e+05   4.98e-29
  6.9185e+05   4.60e-29
  7.2025e+05   4.25e-29
  7.4982e+05   3.92e-29
  7.8061e+05   3.62e-29
  8.1265e+05   3.34e-29
  8.4601e+05   3.08e-29
  8.8075e+05   2.85e-29
  9.1690e+05   2.63e-29
  9.5455e+05   2.42e-29
  9.9373e+05   2.24e-29
  1.0345e+06   2.06e-29
  1.0770e+06   1.91e-29
  1.1212e+06   1.76e-29
  1.1672e+06   1.62e-29
  1.2152e+06   1.50e-29
  1.2650e+06   1.39e-29
  1.3170e+06   1.28e-29
  1.3711e+06   1.19e-29
  1.4273e+06   1.10e-29
  1.4859e+06   1.02e-29
  1.5469e+06   9.41e-30
  1.6104e+06   8.72e-30
  1.6766e+06   8.08e-30
  1.7454e+06   7.49e-30
  1.8170e+06   6.95e-30
  1.8916e+06   6.44e-30
  1.9693e+06   5.98e-30
  2.0501e+06   5.55e-30
  2.1343e+06   5.15e-30
  2.2219e+06   4.78e-30
  2.3131e+06   4.44e-30
  2.4081e+06   4.12e-30
  2.5070e+06   3.83e-30
  2.6099e+06   3.55e-30
  2.7170e+06   3.30e-30
  2.8286e+06   3.06e-30
  2.9447e+06   2.84e-30
  3.0656e+06   2.64e-30
  3.1914e+06   2.45e-30
  3.3225e+06   2.27e-30
  3.4589e+06   2.10e-30
  3.6008e+06   1.95e-30
  3.7487e+06   1.80e-30
  3.9026e+06   1.67e-30
  4.0628e+06   1.54e-30
  4.2296e+06   1.43e-30
  4.4032e+06   1.32e-30
  4.5840e+06   1.21e-30
  4.7722e+06   1.12e-30
  4.9681e+06   1.03e-30
  5.1720e+06   9.42e-31
  5.3844e+06   8.63e-31
  5.6054e+06   7.90e-31
  5.8355e+06   7.21e-31
  6.0751e+06   6.57e-31
  6.3245e+06   5.97e-31
  6.5841e+06   5.41e-31
  6.8544e+06   4.89e-31
  7.1358e+06   4.40e-31
  7.4288e+06   3.95e-31
  7.7338e+06   3.53e-31
  8.0513e+06   3.14e-31
  8.3818e+06   2.78e-31
  8.7259e+06   2.45e-31
  9.0841e+06   2.14e-31
  9.4571e+06   1.86e-31
  9.8453e+06   1.61e-31
  1.0249e+07   1.38e-31
  1.0670e+07   1.17e-31
  1.1108e+07   9.80e-32
  1.1564e+07   8.13e-32
  1.2039e+07   6.66e-32
  1.2533e+07   5.37e-32
  1.3048e+07   4.26e-32
  1.3584e+07   3.32e-32
  1.4141e+07   2.54e-32
  1.4722e+07   1.89e-32
  1.5326e+07   1.38e-32
  1.5955e+07   9.69e-33
  1.6610e+07   6.60e-33
  1.7292e+07   4.32e-33
  1.8002e+07   2.71e-33
  1.8741e+07   1.61e-33
  1.9511e+07   9.04e-34
  2.0312e+07   4.73e-34
  2.1145e+07   2.28e-34
  2.2013e+07   1.00e-34
  2.2917e+07   3.96e-35
  2.3858e+07   1.37e-35
  2.4837e+07   4.08e-36
  2.5857e+07   1.01e-36
  2.6919e+07   2.03e-37
  2.8024e+07   3.14e-38
  2.9174e+07   3.56e-39
  3.0372e+07   2.76e-40
  3.1619e+07   1.35e-41
  3.2917e+07   3.77e-43
  3.4268e+07   5.21e-45
  3.5675e+07   3.01e-47
  3.7140e+07   5.85e-50
  3.8664e+07   2.87e-53
  4.0252e+07   2.43e-57
  4.1904e+07   2.17e-62
  4.3624e+07   1.05e-68
  4.5415e+07   1.56e-71
  4.7280e+07   1.47e-71
  4.9221e+07   1.39e-71
  5.1241e+07   1.31e-71
  5.3345e+07   1.24e-71
  5.5535e+07   1.17e-71
  5.7815e+07   1.10e-71
  6.0188e+07   1.04e-71
  6.2659e+07   9.80e-72
  6.5232e+07   9.23e-72
  6.7910e+07   8.69e-72
  7.0698e+07   8.17e-72
  7.3600e+07   7.68e-72
  7.6621e+07   7.20e-72
  7.9767e+07   6.75e-72
  8.3042e+07   6.31e-72
  8.6451e+07   5.93e-72
  9.0000e+07   5.58e-72
