#  E [MeV]   Flux [# cm^{-2} s^{-1}  MeV^{-1}]
  3.0000e+04   1.35e-21
  3.1123e+04   1.30e-21
  3.2288e+04   1.25e-21
  3.3497e+04   1.20e-21
  3.4751e+04   1.15e-21
  3.6051e+04   1.11e-21
  3.7401e+04   1.07e-21
  3.8801e+04   1.02e-21
  4.0253e+04   9.83e-22
  4.1760e+04   9.44e-22
  4.3324e+04   9.06e-22
  4.4945e+04   8.70e-22
  4.6628e+04   8.35e-22
  4.8373e+04   8.01e-22
  5.0184e+04   7.68e-22
  5.2063e+04   7.36e-22
  5.4011e+04   7.06e-22
  5.6033e+04   6.77e-22
  5.8131e+04   6.49e-22
  6.0307e+04   6.21e-22
  6.2564e+04   5.95e-22
  6.4906e+04   5.70e-22
  6.7336e+04   5.46e-22
  6.9857e+04   5.22e-22
  7.2472e+04   4.99e-22
  7.5184e+04   4.78e-22
  7.7999e+04   4.57e-22
  8.0919e+04   4.37e-22
  8.3948e+04   4.17e-22
  8.7090e+04   3.99e-22
  9.0350e+04   3.81e-22
  9.3732e+04   3.63e-22
  9.7241e+04   3.47e-22
  1.0088e+05   3.31e-22
  1.0466e+05   3.16e-22
  1.0858e+05   3.01e-22
  1.1264e+05   2.87e-22
  1.1686e+05   2.74e-22
  1.2123e+05   2.61e-22
  1.2577e+05   2.48e-22
  1.3048e+05   2.36e-22
  1.3536e+05   2.25e-22
  1.4043e+05   2.14e-22
  1.4568e+05   2.04e-22
  1.5114e+05   1.94e-22
  1.5680e+05   1.84e-22
  1.6266e+05   1.75e-22
  1.6875e+05   1.66e-22
  1.7507e+05   1.57e-22
  1.8162e+05   1.49e-22
  1.8842e+05   1.42e-22
  1.9548e+05   1.34e-22
  2.0279e+05   1.27e-22
  2.1039e+05   1.20e-22
  2.1826e+05   1.14e-22
  2.2643e+05   1.08e-22
  2.3491e+05   1.02e-22
  2.4370e+05   9.64e-23
  2.5282e+05   9.11e-23
  2.6229e+05   8.60e-23
  2.7211e+05   8.11e-23
  2.8229e+05   7.65e-23
  2.9286e+05   7.21e-23
  3.0382e+05   6.79e-23
  3.1519e+05   6.40e-23
  3.2699e+05   6.02e-23
  3.3923e+05   5.66e-23
  3.5193e+05   5.32e-23
  3.6511e+05   4.99e-23
  3.7877e+05   4.69e-23
  3.9295e+05   4.40e-23
  4.0766e+05   4.12e-23
  4.2292e+05   3.86e-23
  4.3875e+05   3.62e-23
  4.5518e+05   3.38e-23
  4.7222e+05   3.16e-23
  4.8989e+05   2.96e-23
  5.0823e+05   2.76e-23
  5.2726e+05   2.58e-23
  5.4699e+05   2.41e-23
  5.6747e+05   2.25e-23
  5.8871e+05   2.10e-23
  6.1075e+05   1.95e-23
  6.3361e+05   1.82e-23
  6.5733e+05   1.70e-23
  6.8194e+05   1.58e-23
  7.0746e+05   1.47e-23
  7.3395e+05   1.37e-23
  7.6142e+05   1.27e-23
  7.8992e+05   1.19e-23
  8.1949e+05   1.10e-23
  8.5017e+05   1.03e-23
  8.8199e+05   9.57e-24
  9.1501e+05   8.91e-24
  9.4926e+05   8.30e-24
  9.8479e+05   7.73e-24
  1.0217e+06   7.20e-24
  1.0599e+06   6.71e-24
  1.0996e+06   6.25e-24
  1.1407e+06   5.83e-24
  1.1834e+06   5.44e-24
  1.2277e+06   5.07e-24
  1.2737e+06   4.74e-24
  1.3214e+06   4.42e-24
  1.3708e+06   4.13e-24
  1.4222e+06   3.87e-24
  1.4754e+06   3.61e-24
  1.5306e+06   3.38e-24
  1.5879e+06   3.17e-24
  1.6474e+06   2.96e-24
  1.7090e+06   2.78e-24
  1.7730e+06   2.60e-24
  1.8394e+06   2.44e-24
  1.9082e+06   2.29e-24
  1.9797e+06   2.15e-24
  2.0538e+06   2.02e-24
  2.1306e+06   1.89e-24
  2.2104e+06   1.78e-24
  2.2931e+06   1.67e-24
  2.3790e+06   1.57e-24
  2.4680e+06   1.48e-24
  2.5604e+06   1.39e-24
  2.6563e+06   1.31e-24
  2.7557e+06   1.23e-24
  2.8589e+06   1.16e-24
  2.9659e+06   1.09e-24
  3.0769e+06   1.02e-24
  3.1921e+06   9.65e-25
  3.3116e+06   9.08e-25
  3.4355e+06   8.54e-25
  3.5641e+06   8.04e-25
  3.6976e+06   7.56e-25
  3.8360e+06   7.10e-25
  3.9796e+06   6.68e-25
  4.1285e+06   6.27e-25
  4.2831e+06   5.89e-25
  4.4434e+06   5.53e-25
  4.6097e+06   5.18e-25
  4.7823e+06   4.85e-25
  4.9613e+06   4.55e-25
  5.1470e+06   4.26e-25
  5.3397e+06   3.98e-25
  5.5396e+06   3.71e-25
  5.7470e+06   3.46e-25
  5.9621e+06   3.22e-25
  6.1853e+06   2.99e-25
  6.4168e+06   2.78e-25
  6.6570e+06   2.57e-25
  6.9062e+06   2.38e-25
  7.1647e+06   2.19e-25
  7.4329e+06   2.01e-25
  7.7112e+06   1.84e-25
  7.9998e+06   1.68e-25
  8.2993e+06   1.53e-25
  8.6100e+06   1.39e-25
  8.9323e+06   1.26e-25
  9.2666e+06   1.13e-25
  9.6135e+06   1.01e-25
  9.9734e+06   9.01e-26
  1.0347e+07   7.97e-26
  1.0734e+07   7.00e-26
  1.1136e+07   6.11e-26
  1.1553e+07   5.29e-26
  1.1985e+07   4.54e-26
  1.2434e+07   3.85e-26
  1.2899e+07   3.24e-26
  1.3382e+07   2.69e-26
  1.3883e+07   2.20e-26
  1.4403e+07   1.78e-26
  1.4942e+07   1.41e-26
  1.5501e+07   1.10e-26
  1.6081e+07   8.39e-27
  1.6683e+07   6.25e-27
  1.7308e+07   4.53e-27
  1.7956e+07   3.19e-27
  1.8628e+07   2.17e-27
  1.9325e+07   1.42e-27
  2.0049e+07   8.89e-28
  2.0799e+07   5.29e-28
  2.1578e+07   2.97e-28
  2.2386e+07   1.56e-28
  2.3224e+07   7.55e-29
  2.4093e+07   3.34e-29
  2.4995e+07   1.33e-29
  2.5930e+07   4.69e-30
  2.6901e+07   1.42e-30
  2.7908e+07   3.64e-31
  2.8953e+07   7.58e-32
  3.0037e+07   1.23e-32
  3.1161e+07   1.50e-33
  3.2327e+07   1.27e-34
  3.3537e+07   7.05e-36
  3.4793e+07   2.31e-37
  3.6095e+07   3.96e-39
  3.7446e+07   3.07e-41
  3.8848e+07   8.85e-44
  4.0302e+07   7.39e-47
  4.1811e+07   1.29e-50
  4.3376e+07   3.13e-55
  4.5000e+07   6.01e-61
