#  E [MeV]   Flux [# cm^{-2} s^{-1}  MeV^{-1}]
  3.0000e+04   3.22e-23
  3.0696e+04   3.10e-23
  3.1408e+04   2.99e-23
  3.2137e+04   2.88e-23
  3.2883e+04   2.77e-23
  3.3646e+04   2.67e-23
  3.4426e+04   2.57e-23
  3.5225e+04   2.48e-23
  3.6042e+04   2.38e-23
  3.6878e+04   2.29e-23
  3.7734e+04   2.21e-23
  3.8609e+04   2.12e-23
  3.9505e+04   2.04e-23
  4.0422e+04   1.96e-23
  4.1360e+04   1.89e-23
  4.2319e+04   1.82e-23
  4.3301e+04   1.75e-23
  4.4306e+04   1.68e-23
  4.5334e+04   1.61e-23
  4.6386e+04   1.55e-23
  4.7462e+04   1.49e-23
  4.8563e+04   1.43e-23
  4.9690e+04   1.37e-23
  5.0843e+04   1.32e-23
  5.2022e+04   1.26e-23
  5.3229e+04   1.21e-23
  5.4464e+04   1.16e-23
  5.5728e+04   1.12e-23
  5.7021e+04   1.07e-23
  5.8344e+04   1.03e-23
  5.9697e+04   9.83e-24
  6.1083e+04   9.41e-24
  6.2500e+04   9.02e-24
  6.3950e+04   8.64e-24
  6.5434e+04   8.27e-24
  6.6952e+04   7.92e-24
  6.8505e+04   7.57e-24
  7.0095e+04   7.24e-24
  7.1721e+04   6.93e-24
  7.3385e+04   6.62e-24
  7.5088e+04   6.32e-24
  7.6830e+04   6.04e-24
  7.8612e+04   5.77e-24
  8.0436e+04   5.51e-24
  8.2302e+04   5.26e-24
  8.4212e+04   5.01e-24
  8.6166e+04   4.78e-24
  8.8165e+04   4.56e-24
  9.0210e+04   4.35e-24
  9.2304e+04   4.14e-24
  9.4445e+04   3.95e-24
  9.6636e+04   3.76e-24
  9.8878e+04   3.58e-24
  1.0117e+05   3.41e-24
  1.0352e+05   3.24e-24
  1.0592e+05   3.08e-24
  1.0838e+05   2.93e-24
  1.1089e+05   2.78e-24
  1.1347e+05   2.65e-24
  1.1610e+05   2.51e-24
  1.1879e+05   2.38e-24
  1.2155e+05   2.26e-24
  1.2437e+05   2.15e-24
  1.2725e+05   2.04e-24
  1.3021e+05   1.93e-24
  1.3323e+05   1.83e-24
  1.3632e+05   1.73e-24
  1.3948e+05   1.64e-24
  1.4272e+05   1.55e-24
  1.4603e+05   1.47e-24
  1.4942e+05   1.38e-24
  1.5288e+05   1.31e-24
  1.5643e+05   1.23e-24
  1.6006e+05   1.17e-24
  1.6377e+05   1.10e-24
  1.6757e+05   1.04e-24
  1.7146e+05   9.75e-25
  1.7544e+05   9.20e-25
  1.7951e+05   8.67e-25
  1.8368e+05   8.16e-25
  1.8794e+05   7.67e-25
  1.9230e+05   7.20e-25
  1.9676e+05   6.77e-25
  2.0132e+05   6.37e-25
  2.0600e+05   5.98e-25
  2.1078e+05   5.60e-25
  2.1567e+05   5.24e-25
  2.2067e+05   4.92e-25
  2.2579e+05   4.61e-25
  2.3103e+05   4.32e-25
  2.3639e+05   4.04e-25
  2.4187e+05   3.77e-25
  2.4748e+05   3.52e-25
  2.5323e+05   3.30e-25
  2.5910e+05   3.08e-25
  2.6511e+05   2.87e-25
  2.7126e+05   2.67e-25
  2.7756e+05   2.49e-25
  2.8400e+05   2.32e-25
  2.9059e+05   2.16e-25
  2.9733e+05   2.00e-25
  3.0423e+05   1.86e-25
  3.1129e+05   1.73e-25
  3.1851e+05   1.61e-25
  3.2590e+05   1.49e-25
  3.3346e+05   1.38e-25
  3.4120e+05   1.27e-25
  3.4911e+05   1.18e-25
  3.5721e+05   1.09e-25
  3.6550e+05   1.01e-25
  3.7398e+05   9.30e-26
  3.8266e+05   8.55e-26
  3.9154e+05   7.90e-26
  4.0062e+05   7.30e-26
  4.0991e+05   6.73e-26
  4.1943e+05   6.19e-26
  4.2916e+05   5.66e-26
  4.3911e+05   5.22e-26
  4.4930e+05   4.81e-26
  4.5973e+05   4.42e-26
  4.7039e+05   4.05e-26
  4.8131e+05   3.69e-26
  4.9247e+05   3.39e-26
  5.0390e+05   3.11e-26
  5.1559e+05   2.85e-26
  5.2755e+05   2.60e-26
  5.3979e+05   2.37e-26
  5.5232e+05   2.17e-26
  5.6513e+05   1.98e-26
  5.7824e+05   1.81e-26
  5.9166e+05   1.64e-26
  6.0539e+05   1.49e-26
  6.1943e+05   1.36e-26
  6.3381e+05   1.24e-26
  6.4851e+05   1.13e-26
  6.6356e+05   1.02e-26
  6.7895e+05   9.24e-27
  6.9471e+05   8.41e-27
  7.1082e+05   7.67e-27
  7.2732e+05   6.97e-27
  7.4419e+05   6.30e-27
  7.6146e+05   5.67e-27
  7.7912e+05   5.15e-27
  7.9720e+05   4.69e-27
  8.1570e+05   4.25e-27
  8.3462e+05   3.84e-27
  8.5399e+05   3.45e-27
  8.7380e+05   3.13e-27
  8.9407e+05   2.85e-27
  9.1482e+05   2.58e-27
  9.3604e+05   2.33e-27
  9.5776e+05   2.10e-27
  9.7998e+05   1.90e-27
  1.0027e+06   1.73e-27
  1.0260e+06   1.57e-27
  1.0498e+06   1.42e-27
  1.0741e+06   1.28e-27
  1.0991e+06   1.16e-27
  1.1246e+06   1.06e-27
  1.1507e+06   9.65e-28
  1.1774e+06   8.75e-28
  1.2047e+06   7.90e-28
  1.2326e+06   7.20e-28
  1.2612e+06   6.61e-28
  1.2905e+06   6.05e-28
  1.3204e+06   5.52e-28
  1.3511e+06   5.01e-28
  1.3824e+06   4.59e-28
  1.4145e+06   4.24e-28
  1.4473e+06   3.91e-28
  1.4809e+06   3.59e-28
  1.5152e+06   3.28e-28
  1.5504e+06   3.03e-28
  1.5864e+06   2.81e-28
  1.6232e+06   2.60e-28
  1.6608e+06   2.40e-28
  1.6994e+06   2.21e-28
  1.7388e+06   2.05e-28
  1.7791e+06   1.91e-28
  1.8204e+06   1.78e-28
  1.8626e+06   1.66e-28
  1.9059e+06   1.54e-28
  1.9501e+06   1.43e-28
  1.9953e+06   1.34e-28
  2.0416e+06   1.25e-28
  2.0890e+06   1.17e-28
  2.1375e+06   1.08e-28
  2.1870e+06   1.01e-28
  2.2378e+06   9.45e-29
  2.2897e+06   8.82e-29
  2.3428e+06   8.21e-29
  2.3972e+06   7.63e-29
  2.4528e+06   7.09e-29
  2.5097e+06   6.57e-29
  2.5680e+06   6.08e-29
  2.6275e+06   5.61e-29
  2.6885e+06   5.17e-29
  2.7509e+06   4.79e-29
  2.8147e+06   4.50e-29
  2.8800e+06   4.22e-29
