#  E [MeV]   Flux [# cm^{-2} s^{-1}  MeV^{-1}]
  3.0000e+04   1.42e-24
  3.1141e+04   1.35e-24
  3.2326e+04   1.29e-24
  3.3556e+04   1.24e-24
  3.4832e+04   1.18e-24
  3.6157e+04   1.13e-24
  3.7533e+04   1.08e-24
  3.8961e+04   1.03e-24
  4.0443e+04   9.80e-25
  4.1982e+04   9.35e-25
  4.3579e+04   8.92e-25
  4.5237e+04   8.51e-25
  4.6958e+04   8.12e-25
  4.8744e+04   7.74e-25
  5.0598e+04   7.38e-25
  5.2523e+04   7.04e-25
  5.4521e+04   6.71e-25
  5.6596e+04   6.39e-25
  5.8749e+04   6.09e-25
  6.0984e+04   5.80e-25
  6.3304e+04   5.53e-25
  6.5712e+04   5.27e-25
  6.8212e+04   5.02e-25
  7.0807e+04   4.78e-25
  7.3500e+04   4.55e-25
  7.6297e+04   4.33e-25
  7.9199e+04   4.12e-25
  8.2212e+04   3.92e-25
  8.5340e+04   3.73e-25
  8.8586e+04   3.55e-25
  9.1956e+04   3.38e-25
  9.5455e+04   3.21e-25
  9.9086e+04   3.05e-25
  1.0286e+05   2.90e-25
  1.0677e+05   2.76e-25
  1.1083e+05   2.62e-25
  1.1505e+05   2.49e-25
  1.1942e+05   2.37e-25
  1.2397e+05   2.25e-25
  1.2868e+05   2.14e-25
  1.3358e+05   2.03e-25
  1.3866e+05   1.93e-25
  1.4394e+05   1.83e-25
  1.4941e+05   1.74e-25
  1.5509e+05   1.65e-25
  1.6100e+05   1.56e-25
  1.6712e+05   1.48e-25
  1.7348e+05   1.40e-25
  1.8008e+05   1.33e-25
  1.8693e+05   1.26e-25
  1.9404e+05   1.20e-25
  2.0142e+05   1.13e-25
  2.0908e+05   1.07e-25
  2.1704e+05   1.02e-25
  2.2529e+05   9.63e-26
  2.3387e+05   9.11e-26
  2.4276e+05   8.62e-26
  2.5200e+05   8.15e-26
  2.6158e+05   7.71e-26
  2.7154e+05   7.29e-26
  2.8187e+05   6.89e-26
  2.9259e+05   6.51e-26
  3.0372e+05   6.14e-26
  3.1527e+05   5.80e-26
  3.2727e+05   5.47e-26
  3.3972e+05   5.16e-26
  3.5264e+05   4.86e-26
  3.6606e+05   4.58e-26
  3.7998e+05   4.31e-26
  3.9444e+05   4.06e-26
  4.0945e+05   3.82e-26
  4.2502e+05   3.59e-26
  4.4119e+05   3.37e-26
  4.5798e+05   3.17e-26
  4.7540e+05   2.97e-26
  4.9348e+05   2.79e-26
  5.1226e+05   2.61e-26
  5.3175e+05   2.45e-26
  5.5198e+05   2.29e-26
  5.7297e+05   2.14e-26
  5.9477e+05   2.00e-26
  6.1740e+05   1.87e-26
  6.4089e+05   1.74e-26
  6.6527e+05   1.63e-26
  6.9058e+05   1.51e-26
  7.1685e+05   1.41e-26
  7.4412e+05   1.31e-26
  7.7243e+05   1.22e-26
  8.0181e+05   1.14e-26
  8.3232e+05   1.06e-26
  8.6398e+05   9.85e-27
  8.9685e+05   9.16e-27
  9.3097e+05   8.52e-27
  9.6638e+05   7.91e-27
  1.0031e+06   7.36e-27
  1.0413e+06   6.83e-27
  1.0809e+06   6.35e-27
  1.1220e+06   5.89e-27
  1.1647e+06   5.47e-27
  1.2090e+06   5.07e-27
  1.2550e+06   4.70e-27
  1.3028e+06   4.36e-27
  1.3523e+06   4.03e-27
  1.4038e+06   3.73e-27
  1.4572e+06   3.45e-27
  1.5126e+06   3.19e-27
  1.5702e+06   2.95e-27
  1.6299e+06   2.72e-27
  1.6919e+06   2.51e-27
  1.7563e+06   2.32e-27
  1.8231e+06   2.14e-27
  1.8925e+06   1.97e-27
  1.9645e+06   1.81e-27
  2.0392e+06   1.67e-27
  2.1168e+06   1.53e-27
  2.1973e+06   1.41e-27
  2.2809e+06   1.29e-27
  2.3677e+06   1.19e-27
  2.4577e+06   1.09e-27
  2.5512e+06   9.94e-28
  2.6483e+06   9.08e-28
  2.7490e+06   8.27e-28
  2.8536e+06   7.55e-28
  2.9622e+06   6.88e-28
  3.0749e+06   6.25e-28
  3.1918e+06   5.68e-28
  3.3133e+06   5.15e-28
  3.4393e+06   4.66e-28
  3.5702e+06   4.22e-28
  3.7060e+06   3.81e-28
  3.8470e+06   3.43e-28
  3.9933e+06   3.09e-28
  4.1452e+06   2.78e-28
  4.3029e+06   2.49e-28
  4.4666e+06   2.23e-28
  4.6366e+06   2.00e-28
  4.8129e+06   1.78e-28
  4.9960e+06   1.58e-28
  5.1861e+06   1.41e-28
  5.3834e+06   1.24e-28
  5.5882e+06   1.10e-28
  5.8008e+06   9.68e-29
  6.0215e+06   8.49e-29
  6.2506e+06   7.43e-29
  6.4883e+06   6.52e-29
  6.7352e+06   5.68e-29
  6.9914e+06   4.93e-29
  7.2574e+06   4.29e-29
  7.5335e+06   3.71e-29
  7.8201e+06   3.18e-29
  8.1176e+06   2.75e-29
  8.4264e+06   2.35e-29
  8.7470e+06   1.99e-29
  9.0797e+06   1.70e-29
  9.4251e+06   1.44e-29
  9.7837e+06   1.21e-29
  1.0156e+07   1.02e-29
  1.0542e+07   8.51e-30
  1.0943e+07   6.99e-30
  1.1360e+07   5.83e-30
  1.1792e+07   4.80e-30
  1.2240e+07   3.88e-30
  1.2706e+07   3.17e-30
  1.3189e+07   2.56e-30
  1.3691e+07   2.03e-30
  1.4212e+07   1.62e-30
  1.4753e+07   1.28e-30
  1.5314e+07   9.82e-31
  1.5897e+07   7.60e-31
  1.6501e+07   5.81e-31
  1.7129e+07   4.32e-31
  1.7781e+07   3.21e-31
  1.8457e+07   2.35e-31
  1.9159e+07   1.67e-31
  1.9888e+07   1.17e-31
  2.0645e+07   8.05e-32
  2.1430e+07   5.32e-32
  2.2245e+07   3.43e-32
  2.3092e+07   2.16e-32
  2.3970e+07   1.29e-32
  2.4882e+07   7.30e-33
  2.5829e+07   3.98e-33
  2.6811e+07   2.00e-33
  2.7831e+07   9.27e-34
  2.8890e+07   3.96e-34
  2.9989e+07   1.49e-34
  3.1130e+07   4.86e-35
  3.2314e+07   1.36e-35
  3.3544e+07   3.09e-36
  3.4820e+07   5.38e-37
  3.6144e+07   6.95e-38
  3.7519e+07   6.05e-39
  3.8947e+07   3.23e-40
  4.0428e+07   9.43e-42
  4.1966e+07   1.27e-43
  4.3563e+07   6.44e-46
  4.5220e+07   9.26e-49
  4.6941e+07   2.63e-52
  4.8726e+07   9.00e-57
  5.0580e+07   1.96e-62
