#  E [GeV]   # per interaction  [GeV^{-1}]
  3.0000e+01   1.30e+00
  3.1232e+01   1.24e+00
  3.2514e+01   1.18e+00
  3.3849e+01   1.13e+00
  3.5238e+01   1.08e+00
  3.6685e+01   1.02e+00
  3.8191e+01   9.75e-01
  3.9759e+01   9.28e-01
  4.1391e+01   8.84e-01
  4.3090e+01   8.41e-01
  4.4859e+01   8.00e-01
  4.6701e+01   7.61e-01
  4.8618e+01   7.24e-01
  5.0614e+01   6.89e-01
  5.2692e+01   6.55e-01
  5.4855e+01   6.22e-01
  5.7107e+01   5.91e-01
  5.9451e+01   5.62e-01
  6.1892e+01   5.34e-01
  6.4433e+01   5.07e-01
  6.7078e+01   4.81e-01
  6.9832e+01   4.57e-01
  7.2699e+01   4.34e-01
  7.5683e+01   4.12e-01
  7.8790e+01   3.90e-01
  8.2025e+01   3.70e-01
  8.5392e+01   3.51e-01
  8.8898e+01   3.33e-01
  9.2547e+01   3.16e-01
  9.6347e+01   2.99e-01
  1.0030e+02   2.83e-01
  1.0442e+02   2.68e-01
  1.0871e+02   2.54e-01
  1.1317e+02   2.40e-01
  1.1782e+02   2.27e-01
  1.2265e+02   2.15e-01
  1.2769e+02   2.04e-01
  1.3293e+02   1.92e-01
  1.3839e+02   1.82e-01
  1.4407e+02   1.72e-01
  1.4998e+02   1.62e-01
  1.5614e+02   1.53e-01
  1.6255e+02   1.44e-01
  1.6922e+02   1.36e-01
  1.7617e+02   1.28e-01
  1.8340e+02   1.21e-01
  1.9093e+02   1.14e-01
  1.9877e+02   1.07e-01
  2.0693e+02   1.01e-01
  2.1543e+02   9.47e-02
  2.2427e+02   8.90e-02
  2.3348e+02   8.36e-02
  2.4306e+02   7.84e-02
  2.5304e+02   7.35e-02
  2.6343e+02   6.89e-02
  2.7424e+02   6.44e-02
  2.8550e+02   6.03e-02
  2.9722e+02   5.63e-02
  3.0942e+02   5.26e-02
  3.2213e+02   4.91e-02
  3.3535e+02   4.57e-02
  3.4912e+02   4.26e-02
  3.6345e+02   3.96e-02
  3.7837e+02   3.68e-02
  3.9390e+02   3.42e-02
  4.1008e+02   3.17e-02
  4.2691e+02   2.94e-02
  4.4444e+02   2.72e-02
  4.6268e+02   2.52e-02
  4.8168e+02   2.32e-02
  5.0145e+02   2.15e-02
  5.2204e+02   1.98e-02
  5.4347e+02   1.82e-02
  5.6578e+02   1.68e-02
  5.8901e+02   1.55e-02
  6.1319e+02   1.42e-02
  6.3836e+02   1.31e-02
  6.6457e+02   1.20e-02
  6.9185e+02   1.10e-02
  7.2025e+02   1.01e-02
  7.4982e+02   9.24e-03
  7.8061e+02   8.46e-03
  8.1265e+02   7.75e-03
  8.4601e+02   7.09e-03
  8.8075e+02   6.49e-03
  9.1690e+02   5.93e-03
  9.5455e+02   5.43e-03
  9.9373e+02   4.96e-03
  1.0345e+03   4.54e-03
  1.0770e+03   4.15e-03
  1.1212e+03   3.79e-03
  1.1672e+03   3.46e-03
  1.2152e+03   3.16e-03
  1.2650e+03   2.89e-03
  1.3170e+03   2.64e-03
  1.3711e+03   2.42e-03
  1.4273e+03   2.21e-03
  1.4859e+03   2.03e-03
  1.5469e+03   1.86e-03
  1.6104e+03   1.70e-03
  1.6766e+03   1.56e-03
  1.7454e+03   1.43e-03
  1.8170e+03   1.31e-03
  1.8916e+03   1.20e-03
  1.9693e+03   1.10e-03
  2.0501e+03   1.00e-03
  2.1343e+03   9.19e-04
  2.2219e+03   8.41e-04
  2.3131e+03   7.68e-04
  2.4081e+03   7.02e-04
  2.5070e+03   6.40e-04
  2.6099e+03   5.83e-04
  2.7170e+03   5.31e-04
  2.8286e+03   4.83e-04
  2.9447e+03   4.39e-04
  3.0656e+03   3.98e-04
  3.1914e+03   3.61e-04
  3.3225e+03   3.26e-04
  3.4589e+03   2.94e-04
  3.6008e+03   2.65e-04
  3.7487e+03   2.38e-04
  3.9026e+03   2.14e-04
  4.0628e+03   1.91e-04
  4.2296e+03   1.70e-04
  4.4032e+03   1.51e-04
  4.5840e+03   1.34e-04
  4.7722e+03   1.18e-04
  4.9681e+03   1.04e-04
  5.1720e+03   9.13e-05
  5.3844e+03   7.97e-05
  5.6054e+03   6.94e-05
  5.8355e+03   5.99e-05
  6.0751e+03   5.16e-05
  6.3245e+03   4.42e-05
  6.5841e+03   3.75e-05
  6.8544e+03   3.18e-05
  7.1358e+03   2.68e-05
  7.4288e+03   2.23e-05
  7.7338e+03   1.85e-05
  8.0513e+03   1.52e-05
  8.3818e+03   1.23e-05
  8.7259e+03   9.96e-06
  9.0841e+03   7.92e-06
  9.4571e+03   6.23e-06
  9.8453e+03   4.86e-06
  1.0249e+04   3.72e-06
  1.0670e+04   2.81e-06
  1.1108e+04   2.09e-06
  1.1564e+04   1.52e-06
  1.2039e+04   1.09e-06
  1.2533e+04   7.63e-07
  1.3048e+04   5.18e-07
  1.3584e+04   3.45e-07
  1.4141e+04   2.22e-07
  1.4722e+04   1.37e-07
  1.5326e+04   8.25e-08
  1.5955e+04   4.73e-08
  1.6610e+04   2.55e-08
  1.7292e+04   1.33e-08
  1.8002e+04   6.41e-09
  1.8741e+04   2.86e-09
  1.9511e+04   1.19e-09
  2.0312e+04   4.48e-10
  2.1145e+04   1.50e-10
  2.2013e+04   4.48e-11
  2.2917e+04   1.14e-11
  2.3858e+04   2.43e-12
  2.4837e+04   4.27e-13
  2.5857e+04   5.79e-14
  2.6919e+04   5.95e-15
  2.8024e+04   4.35e-16
  2.9174e+04   2.08e-17
  3.0372e+04   6.14e-19
  3.1619e+04   9.93e-21
  3.2917e+04   7.59e-23
  3.4268e+04   2.42e-25
  3.5675e+04   2.52e-28
  3.7140e+04   6.51e-32
  3.8664e+04   3.09e-36
  4.0252e+04   1.64e-41
  4.1904e+04   2.68e-47
  4.3624e+04   2.35e-47
  4.5415e+04   2.03e-47
  4.7280e+04   1.76e-47
  4.9221e+04   1.55e-47
  5.1241e+04   1.36e-47
  5.3345e+04   1.20e-47
  5.5535e+04   1.07e-47
  5.7815e+04   9.53e-48
  6.0188e+04   8.52e-48
  6.2659e+04   7.65e-48
  6.5232e+04   6.84e-48
  6.7910e+04   6.13e-48
  7.0698e+04   5.48e-48
  7.3600e+04   4.87e-48
  7.6621e+04   4.29e-48
  7.9767e+04   3.75e-48
  8.3042e+04   3.24e-48
  8.6451e+04   2.84e-48
  9.0000e+04   2.46e-48
