#  E [MeV]   Flux [# cm^{-2} s^{-1}  MeV^{-1}]
  3.0000e+04   3.82e-26
  3.1141e+04   3.67e-26
  3.2326e+04   3.53e-26
  3.3556e+04   3.40e-26
  3.4832e+04   3.27e-26
  3.6157e+04   3.14e-26
  3.7533e+04   3.02e-26
  3.8961e+04   2.90e-26
  4.0443e+04   2.78e-26
  4.1982e+04   2.67e-26
  4.3579e+04   2.57e-26
  4.5237e+04   2.46e-26
  4.6958e+04   2.37e-26
  4.8744e+04   2.27e-26
  5.0598e+04   2.18e-26
  5.2523e+04   2.09e-26
  5.4521e+04   2.00e-26
  5.6596e+04   1.92e-26
  5.8749e+04   1.84e-26
  6.0984e+04   1.76e-26
  6.3304e+04   1.69e-26
  6.5712e+04   1.62e-26
  6.8212e+04   1.55e-26
  7.0807e+04   1.48e-26
  7.3500e+04   1.42e-26
  7.6297e+04   1.36e-26
  7.9199e+04   1.30e-26
  8.2212e+04   1.24e-26
  8.5340e+04   1.18e-26
  8.8586e+04   1.13e-26
  9.1956e+04   1.08e-26
  9.5455e+04   1.03e-26
  9.9086e+04   9.86e-27
  1.0286e+05   9.41e-27
  1.0677e+05   8.98e-27
  1.1083e+05   8.56e-27
  1.1505e+05   8.17e-27
  1.1942e+05   7.79e-27
  1.2397e+05   7.42e-27
  1.2868e+05   7.07e-27
  1.3358e+05   6.73e-27
  1.3866e+05   6.41e-27
  1.4394e+05   6.10e-27
  1.4941e+05   5.80e-27
  1.5509e+05   5.52e-27
  1.6100e+05   5.25e-27
  1.6712e+05   4.99e-27
  1.7348e+05   4.74e-27
  1.8008e+05   4.50e-27
  1.8693e+05   4.28e-27
  1.9404e+05   4.06e-27
  2.0142e+05   3.85e-27
  2.0908e+05   3.65e-27
  2.1704e+05   3.46e-27
  2.2529e+05   3.28e-27
  2.3387e+05   3.11e-27
  2.4276e+05   2.94e-27
  2.5200e+05   2.78e-27
  2.6158e+05   2.63e-27
  2.7154e+05   2.49e-27
  2.8187e+05   2.35e-27
  2.9259e+05   2.22e-27
  3.0372e+05   2.10e-27
  3.1527e+05   1.98e-27
  3.2727e+05   1.87e-27
  3.3972e+05   1.76e-27
  3.5264e+05   1.66e-27
  3.6606e+05   1.56e-27
  3.7998e+05   1.47e-27
  3.9444e+05   1.38e-27
  4.0945e+05   1.30e-27
  4.2502e+05   1.22e-27
  4.4119e+05   1.15e-27
  4.5798e+05   1.08e-27
  4.7540e+05   1.01e-27
  4.9348e+05   9.52e-28
  5.1226e+05   8.93e-28
  5.3175e+05   8.37e-28
  5.5198e+05   7.85e-28
  5.7297e+05   7.36e-28
  5.9477e+05   6.89e-28
  6.1740e+05   6.45e-28
  6.4089e+05   6.04e-28
  6.6527e+05   5.65e-28
  6.9058e+05   5.29e-28
  7.1685e+05   4.95e-28
  7.4412e+05   4.63e-28
  7.7243e+05   4.33e-28
  8.0181e+05   4.05e-28
  8.3232e+05   3.78e-28
  8.6398e+05   3.54e-28
  8.9685e+05   3.31e-28
  9.3097e+05   3.09e-28
  9.6638e+05   2.89e-28
  1.0031e+06   2.70e-28
  1.0413e+06   2.53e-28
  1.0809e+06   2.37e-28
  1.1220e+06   2.21e-28
  1.1647e+06   2.07e-28
  1.2090e+06   1.94e-28
  1.2550e+06   1.81e-28
  1.3028e+06   1.70e-28
  1.3523e+06   1.59e-28
  1.4038e+06   1.49e-28
  1.4572e+06   1.40e-28
  1.5126e+06   1.31e-28
  1.5702e+06   1.23e-28
  1.6299e+06   1.15e-28
  1.6919e+06   1.08e-28
  1.7563e+06   1.01e-28
  1.8231e+06   9.52e-29
  1.8925e+06   8.94e-29
  1.9645e+06   8.39e-29
  2.0392e+06   7.89e-29
  2.1168e+06   7.41e-29
  2.1973e+06   6.97e-29
  2.2809e+06   6.55e-29
  2.3677e+06   6.16e-29
  2.4577e+06   5.80e-29
  2.5512e+06   5.46e-29
  2.6483e+06   5.14e-29
  2.7490e+06   4.84e-29
  2.8536e+06   4.56e-29
  2.9622e+06   4.29e-29
  3.0749e+06   4.04e-29
  3.1918e+06   3.81e-29
  3.3133e+06   3.59e-29
  3.4393e+06   3.38e-29
  3.5702e+06   3.19e-29
  3.7060e+06   3.00e-29
  3.8470e+06   2.83e-29
  3.9933e+06   2.67e-29
  4.1452e+06   2.51e-29
  4.3029e+06   2.37e-29
  4.4666e+06   2.23e-29
  4.6366e+06   2.10e-29
  4.8129e+06   1.97e-29
  4.9960e+06   1.86e-29
  5.1861e+06   1.75e-29
  5.3834e+06   1.64e-29
  5.5882e+06   1.54e-29
  5.8008e+06   1.45e-29
  6.0215e+06   1.36e-29
  6.2506e+06   1.27e-29
  6.4883e+06   1.19e-29
  6.7352e+06   1.12e-29
  6.9914e+06   1.04e-29
  7.2574e+06   9.73e-30
  7.5335e+06   9.06e-30
  7.8201e+06   8.43e-30
  8.1176e+06   7.83e-30
  8.4264e+06   7.25e-30
  8.7470e+06   6.70e-30
  9.0797e+06   6.18e-30
  9.4251e+06   5.68e-30
  9.7837e+06   5.21e-30
  1.0156e+07   4.76e-30
  1.0542e+07   4.33e-30
  1.0943e+07   3.93e-30
  1.1360e+07   3.54e-30
  1.1792e+07   3.18e-30
  1.2240e+07   2.84e-30
  1.2706e+07   2.52e-30
  1.3189e+07   2.22e-30
  1.3691e+07   1.94e-30
  1.4212e+07   1.68e-30
  1.4753e+07   1.44e-30
  1.5314e+07   1.22e-30
  1.5897e+07   1.03e-30
  1.6501e+07   8.48e-31
  1.7129e+07   6.90e-31
  1.7781e+07   5.52e-31
  1.8457e+07   4.33e-31
  1.9159e+07   3.32e-31
  1.9888e+07   2.47e-31
  2.0645e+07   1.79e-31
  2.1430e+07   1.25e-31
  2.2245e+07   8.43e-32
  2.3092e+07   5.41e-32
  2.3970e+07   3.29e-32
  2.4882e+07   1.88e-32
  2.5829e+07   9.96e-33
  2.6811e+07   4.84e-33
  2.7831e+07   2.12e-33
  2.8890e+07   8.24e-34
  2.9989e+07   2.76e-34
  3.1130e+07   7.75e-35
  3.2314e+07   1.76e-35
  3.3544e+07   3.08e-36
  3.4820e+07   3.93e-37
  3.6144e+07   3.40e-38
  3.7519e+07   1.81e-39
  3.8947e+07   5.31e-41
  4.0428e+07   7.32e-43
  4.1966e+07   3.90e-45
  4.3563e+07   6.20e-48
  4.5220e+07   2.08e-51
  4.6941e+07   9.34e-56
  4.8726e+07   3.04e-61
  5.0580e+07   3.16e-68
