#  E [MeV]   Flux [# cm^{-2} s^{-1}  MeV^{-1}]
  3.0000e+04   8.87e-24
  3.0962e+04   8.52e-24
  3.1955e+04   8.18e-24
  3.2979e+04   7.85e-24
  3.4037e+04   7.54e-24
  3.5128e+04   7.23e-24
  3.6254e+04   6.94e-24
  3.7417e+04   6.66e-24
  3.8616e+04   6.39e-24
  3.9855e+04   6.13e-24
  4.1132e+04   5.88e-24
  4.2451e+04   5.64e-24
  4.3812e+04   5.41e-24
  4.5217e+04   5.19e-24
  4.6667e+04   4.98e-24
  4.8163e+04   4.77e-24
  4.9707e+04   4.58e-24
  5.1301e+04   4.39e-24
  5.2946e+04   4.21e-24
  5.4644e+04   4.03e-24
  5.6396e+04   3.86e-24
  5.8204e+04   3.70e-24
  6.0070e+04   3.55e-24
  6.1996e+04   3.40e-24
  6.3984e+04   3.25e-24
  6.6035e+04   3.12e-24
  6.8153e+04   2.99e-24
  7.0338e+04   2.86e-24
  7.2593e+04   2.74e-24
  7.4921e+04   2.62e-24
  7.7323e+04   2.51e-24
  7.9802e+04   2.40e-24
  8.2361e+04   2.30e-24
  8.5002e+04   2.20e-24
  8.7727e+04   2.10e-24
  9.0540e+04   2.01e-24
  9.3443e+04   1.93e-24
  9.6439e+04   1.84e-24
  9.9531e+04   1.76e-24
  1.0272e+05   1.68e-24
  1.0602e+05   1.61e-24
  1.0942e+05   1.54e-24
  1.1292e+05   1.47e-24
  1.1654e+05   1.40e-24
  1.2028e+05   1.34e-24
  1.2414e+05   1.28e-24
  1.2812e+05   1.22e-24
  1.3223e+05   1.17e-24
  1.3646e+05   1.11e-24
  1.4084e+05   1.06e-24
  1.4536e+05   1.01e-24
  1.5002e+05   9.63e-25
  1.5483e+05   9.18e-25
  1.5979e+05   8.74e-25
  1.6491e+05   8.32e-25
  1.7020e+05   7.91e-25
  1.7566e+05   7.53e-25
  1.8129e+05   7.15e-25
  1.8710e+05   6.80e-25
  1.9310e+05   6.46e-25
  1.9929e+05   6.13e-25
  2.0568e+05   5.81e-25
  2.1228e+05   5.51e-25
  2.1909e+05   5.22e-25
  2.2611e+05   4.94e-25
  2.3336e+05   4.68e-25
  2.4084e+05   4.43e-25
  2.4856e+05   4.19e-25
  2.5653e+05   3.96e-25
  2.6476e+05   3.75e-25
  2.7325e+05   3.54e-25
  2.8201e+05   3.35e-25
  2.9105e+05   3.16e-25
  3.0038e+05   2.99e-25
  3.1002e+05   2.82e-25
  3.1996e+05   2.66e-25
  3.3021e+05   2.51e-25
  3.4080e+05   2.37e-25
  3.5173e+05   2.23e-25
  3.6301e+05   2.11e-25
  3.7465e+05   1.98e-25
  3.8666e+05   1.87e-25
  3.9905e+05   1.75e-25
  4.1185e+05   1.65e-25
  4.2506e+05   1.55e-25
  4.3868e+05   1.45e-25
  4.5275e+05   1.36e-25
  4.6727e+05   1.28e-25
  4.8225e+05   1.20e-25
  4.9771e+05   1.12e-25
  5.1367e+05   1.05e-25
  5.3014e+05   9.80e-26
  5.4714e+05   9.16e-26
  5.6468e+05   8.55e-26
  5.8278e+05   7.98e-26
  6.0147e+05   7.44e-26
  6.2075e+05   6.93e-26
  6.4066e+05   6.46e-26
  6.6120e+05   6.01e-26
  6.8240e+05   5.59e-26
  7.0428e+05   5.20e-26
  7.2686e+05   4.83e-26
  7.5017e+05   4.48e-26
  7.7422e+05   4.15e-26
  7.9904e+05   3.85e-26
  8.2466e+05   3.57e-26
  8.5110e+05   3.30e-26
  8.7839e+05   3.04e-26
  9.0656e+05   2.81e-26
  9.3562e+05   2.60e-26
  9.6562e+05   2.39e-26
  9.9658e+05   2.21e-26
  1.0285e+06   2.03e-26
  1.0615e+06   1.87e-26
  1.0956e+06   1.72e-26
  1.1307e+06   1.58e-26
  1.1669e+06   1.45e-26
  1.2043e+06   1.33e-26
  1.2430e+06   1.22e-26
  1.2828e+06   1.11e-26
  1.3239e+06   1.02e-26
  1.3664e+06   9.30e-27
  1.4102e+06   8.50e-27
  1.4554e+06   7.76e-27
  1.5021e+06   7.07e-27
  1.5502e+06   6.42e-27
  1.6000e+06   5.85e-27
  1.6513e+06   5.32e-27
  1.7042e+06   4.81e-27
  1.7588e+06   4.35e-27
  1.8152e+06   3.95e-27
  1.8734e+06   3.57e-27
  1.9335e+06   3.21e-27
  1.9955e+06   2.90e-27
  2.0595e+06   2.62e-27
  2.1255e+06   2.36e-27
  2.1937e+06   2.11e-27
  2.2640e+06   1.90e-27
  2.3366e+06   1.71e-27
  2.4115e+06   1.53e-27
  2.4888e+06   1.36e-27
  2.5686e+06   1.22e-27
  2.6510e+06   1.09e-27
  2.7360e+06   9.66e-28
  2.8237e+06   8.62e-28
  2.9142e+06   7.69e-28
  3.0077e+06   6.81e-28
  3.1041e+06   5.99e-28
  3.2036e+06   5.34e-28
  3.3064e+06   4.73e-28
  3.4124e+06   4.15e-28
  3.5218e+06   3.64e-28
  3.6347e+06   3.22e-28
  3.7512e+06   2.83e-28
  3.8715e+06   2.46e-28
  3.9957e+06   2.16e-28
  4.1238e+06   1.90e-28
  4.2560e+06   1.66e-28
  4.3924e+06   1.43e-28
  4.5333e+06   1.26e-28
  4.6786e+06   1.10e-28
  4.8286e+06   9.45e-29
  4.9835e+06   8.18e-29
  5.1433e+06   7.14e-29
  5.3082e+06   6.17e-29
  5.4784e+06   5.27e-29
  5.6540e+06   4.58e-29
  5.8353e+06   3.98e-29
  6.0224e+06   3.41e-29
  6.2155e+06   2.90e-29
  6.4148e+06   2.53e-29
  6.6205e+06   2.18e-29
  6.8327e+06   1.85e-29
  7.0518e+06   1.59e-29
  7.2779e+06   1.38e-29
  7.5113e+06   1.19e-29
  7.7521e+06   1.01e-29
  8.0007e+06   8.78e-30
  8.2572e+06   7.62e-30
  8.5219e+06   6.55e-30
  8.7952e+06   5.61e-30
  9.0772e+06   4.91e-30
  9.3682e+06   4.26e-30
  9.6686e+06   3.66e-30
  9.9786e+06   3.19e-30
  1.0299e+07   2.80e-30
  1.0629e+07   2.44e-30
  1.0970e+07   2.12e-30
  1.1321e+07   1.87e-30
  1.1684e+07   1.64e-30
  1.2059e+07   1.43e-30
  1.2446e+07   1.25e-30
  1.2845e+07   1.09e-30
  1.3256e+07   9.41e-31
  1.3681e+07   8.07e-31
  1.4120e+07   6.89e-31
  1.4573e+07   5.85e-31
  1.5040e+07   4.91e-31
  1.5522e+07   4.07e-31
  1.6020e+07   3.42e-31
