#  E [GeV]   # per interaction  [GeV^{-1}]
  3.0000e+01   1.07e+00
  3.1123e+01   1.03e+00
  3.2288e+01   9.81e-01
  3.3497e+01   9.38e-01
  3.4751e+01   8.97e-01
  3.6051e+01   8.57e-01
  3.7401e+01   8.19e-01
  3.8801e+01   7.82e-01
  4.0253e+01   7.47e-01
  4.1760e+01   7.14e-01
  4.3324e+01   6.81e-01
  4.4945e+01   6.50e-01
  4.6628e+01   6.21e-01
  4.8373e+01   5.93e-01
  5.0184e+01   5.65e-01
  5.2063e+01   5.39e-01
  5.4011e+01   5.15e-01
  5.6033e+01   4.91e-01
  5.8131e+01   4.68e-01
  6.0307e+01   4.46e-01
  6.2564e+01   4.25e-01
  6.4906e+01   4.05e-01
  6.7336e+01   3.86e-01
  6.9857e+01   3.68e-01
  7.2472e+01   3.50e-01
  7.5184e+01   3.33e-01
  7.7999e+01   3.17e-01
  8.0919e+01   3.02e-01
  8.3948e+01   2.87e-01
  8.7090e+01   2.73e-01
  9.0350e+01   2.60e-01
  9.3732e+01   2.47e-01
  9.7241e+01   2.35e-01
  1.0088e+02   2.23e-01
  1.0466e+02   2.12e-01
  1.0858e+02   2.01e-01
  1.1264e+02   1.91e-01
  1.1686e+02   1.81e-01
  1.2123e+02   1.72e-01
  1.2577e+02   1.63e-01
  1.3048e+02   1.55e-01
  1.3536e+02   1.47e-01
  1.4043e+02   1.39e-01
  1.4568e+02   1.32e-01
  1.5114e+02   1.25e-01
  1.5680e+02   1.18e-01
  1.6266e+02   1.11e-01
  1.6875e+02   1.05e-01
  1.7507e+02   9.95e-02
  1.8162e+02   9.40e-02
  1.8842e+02   8.87e-02
  1.9548e+02   8.37e-02
  2.0279e+02   7.88e-02
  2.1039e+02   7.43e-02
  2.1826e+02   6.99e-02
  2.2643e+02   6.58e-02
  2.3491e+02   6.18e-02
  2.4370e+02   5.80e-02
  2.5282e+02   5.45e-02
  2.6229e+02   5.11e-02
  2.7211e+02   4.78e-02
  2.8229e+02   4.48e-02
  2.9286e+02   4.18e-02
  3.0382e+02   3.91e-02
  3.1519e+02   3.65e-02
  3.2699e+02   3.40e-02
  3.3923e+02   3.16e-02
  3.5193e+02   2.94e-02
  3.6511e+02   2.74e-02
  3.7877e+02   2.54e-02
  3.9295e+02   2.35e-02
  4.0766e+02   2.18e-02
  4.2292e+02   2.02e-02
  4.3875e+02   1.86e-02
  4.5518e+02   1.72e-02
  4.7222e+02   1.59e-02
  4.8989e+02   1.46e-02
  5.0823e+02   1.35e-02
  5.2726e+02   1.24e-02
  5.4699e+02   1.14e-02
  5.6747e+02   1.04e-02
  5.8871e+02   9.58e-03
  6.1075e+02   8.78e-03
  6.3361e+02   8.04e-03
  6.5733e+02   7.35e-03
  6.8194e+02   6.73e-03
  7.0746e+02   6.15e-03
  7.3395e+02   5.61e-03
  7.6142e+02   5.12e-03
  7.8992e+02   4.68e-03
  8.1949e+02   4.26e-03
  8.5017e+02   3.89e-03
  8.8199e+02   3.54e-03
  9.1501e+02   3.22e-03
  9.4926e+02   2.94e-03
  9.8479e+02   2.67e-03
  1.0217e+03   2.43e-03
  1.0599e+03   2.21e-03
  1.0996e+03   2.01e-03
  1.1407e+03   1.83e-03
  1.1834e+03   1.66e-03
  1.2277e+03   1.51e-03
  1.2737e+03   1.38e-03
  1.3214e+03   1.25e-03
  1.3708e+03   1.14e-03
  1.4222e+03   1.03e-03
  1.4754e+03   9.37e-04
  1.5306e+03   8.51e-04
  1.5879e+03   7.73e-04
  1.6474e+03   7.01e-04
  1.7090e+03   6.37e-04
  1.7730e+03   5.78e-04
  1.8394e+03   5.23e-04
  1.9082e+03   4.74e-04
  1.9797e+03   4.30e-04
  2.0538e+03   3.89e-04
  2.1306e+03   3.52e-04
  2.2104e+03   3.18e-04
  2.2931e+03   2.86e-04
  2.3790e+03   2.58e-04
  2.4680e+03   2.33e-04
  2.5604e+03   2.09e-04
  2.6563e+03   1.88e-04
  2.7557e+03   1.69e-04
  2.8589e+03   1.51e-04
  2.9659e+03   1.35e-04
  3.0769e+03   1.21e-04
  3.1921e+03   1.08e-04
  3.3116e+03   9.60e-05
  3.4355e+03   8.56e-05
  3.5641e+03   7.59e-05
  3.6976e+03   6.70e-05
  3.8360e+03   5.94e-05
  3.9796e+03   5.24e-05
  4.1285e+03   4.59e-05
  4.2831e+03   4.03e-05
  4.4434e+03   3.53e-05
  4.6097e+03   3.06e-05
  4.7823e+03   2.67e-05
  4.9613e+03   2.32e-05
  5.1470e+03   1.99e-05
  5.3397e+03   1.71e-05
  5.5396e+03   1.47e-05
  5.7470e+03   1.25e-05
  5.9621e+03   1.07e-05
  6.1853e+03   9.05e-06
  6.4168e+03   7.61e-06
  6.6570e+03   6.37e-06
  6.9062e+03   5.34e-06
  7.1647e+03   4.42e-06
  7.4329e+03   3.63e-06
  7.7112e+03   3.00e-06
  7.9998e+03   2.44e-06
  8.2993e+03   1.96e-06
  8.6100e+03   1.58e-06
  8.9323e+03   1.26e-06
  9.2666e+03   9.86e-07
  9.6135e+03   7.76e-07
  9.9734e+03   6.01e-07
  1.0347e+04   4.56e-07
  1.0734e+04   3.47e-07
  1.1136e+04   2.60e-07
  1.1553e+04   1.90e-07
  1.1985e+04   1.38e-07
  1.2434e+04   9.88e-08
  1.2899e+04   6.87e-08
  1.3382e+04   4.71e-08
  1.3883e+04   3.17e-08
  1.4403e+04   2.06e-08
  1.4942e+04   1.31e-08
  1.5501e+04   8.08e-09
  1.6081e+04   4.78e-09
  1.6683e+04   2.72e-09
  1.7308e+04   1.49e-09
  1.7956e+04   7.74e-10
  1.8628e+04   3.76e-10
  1.9325e+04   1.74e-10
  2.0049e+04   7.41e-11
  2.0799e+04   2.87e-11
  2.1578e+04   1.02e-11
  2.2386e+04   3.22e-12
  2.3224e+04   8.81e-13
  2.4093e+04   2.08e-13
  2.4995e+04   4.09e-14
  2.5930e+04   6.48e-15
  2.6901e+04   8.05e-16
  2.7908e+04   7.46e-17
  2.8953e+04   4.88e-18
  3.0037e+04   2.12e-19
  3.1161e+04   5.68e-21
  3.2327e+04   8.44e-23
  3.3537e+04   6.20e-25
  3.4793e+04   1.94e-27
  3.6095e+04   2.16e-30
  3.7446e+04   6.79e-34
  3.8848e+04   4.52e-38
  4.0302e+04   4.41e-43
  4.1811e+04   1.40e-47
  4.3376e+04   1.29e-47
  4.5000e+04   1.18e-47
