#  E [MeV]   Flux [# cm^{-2} s^{-1}  MeV^{-1}]
  3.0000e+04   2.74e-20
  3.1123e+04   2.62e-20
  3.2288e+04   2.50e-20
  3.3497e+04   2.39e-20
  3.4751e+04   2.29e-20
  3.6051e+04   2.19e-20
  3.7401e+04   2.09e-20
  3.8801e+04   2.00e-20
  4.0253e+04   1.91e-20
  4.1760e+04   1.82e-20
  4.3324e+04   1.74e-20
  4.4945e+04   1.66e-20
  4.6628e+04   1.58e-20
  4.8373e+04   1.51e-20
  5.0184e+04   1.44e-20
  5.2063e+04   1.38e-20
  5.4011e+04   1.31e-20
  5.6033e+04   1.25e-20
  5.8131e+04   1.19e-20
  6.0307e+04   1.14e-20
  6.2564e+04   1.08e-20
  6.4906e+04   1.03e-20
  6.7336e+04   9.85e-21
  6.9857e+04   9.38e-21
  7.2472e+04   8.93e-21
  7.5184e+04   8.51e-21
  7.7999e+04   8.10e-21
  8.0919e+04   7.70e-21
  8.3948e+04   7.33e-21
  8.7090e+04   6.97e-21
  9.0350e+04   6.63e-21
  9.3732e+04   6.30e-21
  9.7241e+04   5.99e-21
  1.0088e+05   5.69e-21
  1.0466e+05   5.41e-21
  1.0858e+05   5.14e-21
  1.1264e+05   4.88e-21
  1.1686e+05   4.63e-21
  1.2123e+05   4.39e-21
  1.2577e+05   4.17e-21
  1.3048e+05   3.95e-21
  1.3536e+05   3.74e-21
  1.4043e+05   3.55e-21
  1.4568e+05   3.36e-21
  1.5114e+05   3.18e-21
  1.5680e+05   3.01e-21
  1.6266e+05   2.84e-21
  1.6875e+05   2.69e-21
  1.7507e+05   2.54e-21
  1.8162e+05   2.40e-21
  1.8842e+05   2.26e-21
  1.9548e+05   2.13e-21
  2.0279e+05   2.01e-21
  2.1039e+05   1.89e-21
  2.1826e+05   1.78e-21
  2.2643e+05   1.68e-21
  2.3491e+05   1.58e-21
  2.4370e+05   1.48e-21
  2.5282e+05   1.39e-21
  2.6229e+05   1.30e-21
  2.7211e+05   1.22e-21
  2.8229e+05   1.14e-21
  2.9286e+05   1.07e-21
  3.0382e+05   9.97e-22
  3.1519e+05   9.30e-22
  3.2699e+05   8.67e-22
  3.3923e+05   8.07e-22
  3.5193e+05   7.51e-22
  3.6511e+05   6.98e-22
  3.7877e+05   6.48e-22
  3.9295e+05   6.01e-22
  4.0766e+05   5.56e-22
  4.2292e+05   5.15e-22
  4.3875e+05   4.76e-22
  4.5518e+05   4.39e-22
  4.7222e+05   4.05e-22
  4.8989e+05   3.73e-22
  5.0823e+05   3.44e-22
  5.2726e+05   3.16e-22
  5.4699e+05   2.90e-22
  5.6747e+05   2.66e-22
  5.8871e+05   2.44e-22
  6.1075e+05   2.24e-22
  6.3361e+05   2.05e-22
  6.5733e+05   1.88e-22
  6.8194e+05   1.72e-22
  7.0746e+05   1.57e-22
  7.3395e+05   1.43e-22
  7.6142e+05   1.31e-22
  7.8992e+05   1.19e-22
  8.1949e+05   1.09e-22
  8.5017e+05   9.91e-23
  8.8199e+05   9.03e-23
  9.1501e+05   8.23e-23
  9.4926e+05   7.49e-23
  9.8479e+05   6.82e-23
  1.0217e+06   6.21e-23
  1.0599e+06   5.65e-23
  1.0996e+06   5.14e-23
  1.1407e+06   4.67e-23
  1.1834e+06   4.25e-23
  1.2277e+06   3.86e-23
  1.2737e+06   3.51e-23
  1.3214e+06   3.19e-23
  1.3708e+06   2.90e-23
  1.4222e+06   2.63e-23
  1.4754e+06   2.39e-23
  1.5306e+06   2.17e-23
  1.5879e+06   1.97e-23
  1.6474e+06   1.79e-23
  1.7090e+06   1.62e-23
  1.7730e+06   1.47e-23
  1.8394e+06   1.33e-23
  1.9082e+06   1.21e-23
  1.9797e+06   1.10e-23
  2.0538e+06   9.91e-24
  2.1306e+06   8.97e-24
  2.2104e+06   8.11e-24
  2.2931e+06   7.31e-24
  2.3790e+06   6.59e-24
  2.4680e+06   5.94e-24
  2.5604e+06   5.34e-24
  2.6563e+06   4.80e-24
  2.7557e+06   4.31e-24
  2.8589e+06   3.86e-24
  2.9659e+06   3.45e-24
  3.0769e+06   3.09e-24
  3.1921e+06   2.76e-24
  3.3116e+06   2.45e-24
  3.4355e+06   2.18e-24
  3.5641e+06   1.94e-24
  3.6976e+06   1.71e-24
  3.8360e+06   1.52e-24
  3.9796e+06   1.34e-24
  4.1285e+06   1.17e-24
  4.2831e+06   1.03e-24
  4.4434e+06   9.00e-25
  4.6097e+06   7.82e-25
  4.7823e+06   6.81e-25
  4.9613e+06   5.91e-25
  5.1470e+06   5.08e-25
  5.3397e+06   4.37e-25
  5.5396e+06   3.76e-25
  5.7470e+06   3.20e-25
  5.9621e+06   2.72e-25
  6.1853e+06   2.31e-25
  6.4168e+06   1.94e-25
  6.6570e+06   1.62e-25
  6.9062e+06   1.36e-25
  7.1647e+06   1.13e-25
  7.4329e+06   9.27e-26
  7.7112e+06   7.65e-26
  7.9998e+06   6.23e-26
  8.2993e+06   5.00e-26
  8.6100e+06   4.04e-26
  8.9323e+06   3.22e-26
  9.2666e+06   2.51e-26
  9.6135e+06   1.98e-26
  9.9734e+06   1.53e-26
  1.0347e+07   1.16e-26
  1.0734e+07   8.85e-27
  1.1136e+07   6.63e-27
  1.1553e+07   4.84e-27
  1.1985e+07   3.52e-27
  1.2434e+07   2.52e-27
  1.2899e+07   1.75e-27
  1.3382e+07   1.20e-27
  1.3883e+07   8.09e-28
  1.4403e+07   5.26e-28
  1.4942e+07   3.33e-28
  1.5501e+07   2.06e-28
  1.6081e+07   1.22e-28
  1.6683e+07   6.93e-29
  1.7308e+07   3.81e-29
  1.7956e+07   1.97e-29
  1.8628e+07   9.60e-30
  1.9325e+07   4.44e-30
  2.0049e+07   1.89e-30
  2.0799e+07   7.32e-31
  2.1578e+07   2.61e-31
  2.2386e+07   8.21e-32
  2.3224e+07   2.25e-32
  2.4093e+07   5.31e-33
  2.4995e+07   1.04e-33
  2.5930e+07   1.65e-34
  2.6901e+07   2.05e-35
  2.7908e+07   1.90e-36
  2.8953e+07   1.24e-37
  3.0037e+07   5.42e-39
  3.1161e+07   1.45e-40
  3.2327e+07   2.15e-42
  3.3537e+07   1.58e-44
  3.4793e+07   4.95e-47
  3.6095e+07   5.51e-50
  3.7446e+07   1.73e-53
  3.8848e+07   1.15e-57
  4.0302e+07   1.13e-62
  4.1811e+07   3.57e-67
  4.3376e+07   3.28e-67
  4.5000e+07   3.01e-67
