#  E [MeV]   Flux [# cm^{-2} s^{-1}  MeV^{-1}]
  3.0000e+04   1.04e-24
  3.1051e+04   9.99e-25
  3.2139e+04   9.56e-25
  3.3266e+04   9.16e-25
  3.4432e+04   8.76e-25
  3.5638e+04   8.39e-25
  3.6887e+04   8.03e-25
  3.8180e+04   7.68e-25
  3.9518e+04   7.35e-25
  4.0903e+04   7.03e-25
  4.2336e+04   6.72e-25
  4.3820e+04   6.43e-25
  4.5355e+04   6.14e-25
  4.6945e+04   5.87e-25
  4.8590e+04   5.61e-25
  5.0293e+04   5.36e-25
  5.2055e+04   5.13e-25
  5.3879e+04   4.90e-25
  5.5767e+04   4.68e-25
  5.7722e+04   4.47e-25
  5.9745e+04   4.27e-25
  6.1838e+04   4.07e-25
  6.4005e+04   3.89e-25
  6.6248e+04   3.71e-25
  6.8570e+04   3.55e-25
  7.0973e+04   3.38e-25
  7.3460e+04   3.23e-25
  7.6034e+04   3.08e-25
  7.8699e+04   2.94e-25
  8.1457e+04   2.80e-25
  8.4311e+04   2.67e-25
  8.7266e+04   2.55e-25
  9.0324e+04   2.43e-25
  9.3490e+04   2.32e-25
  9.6766e+04   2.21e-25
  1.0016e+05   2.10e-25
  1.0367e+05   2.00e-25
  1.0730e+05   1.91e-25
  1.1106e+05   1.82e-25
  1.1495e+05   1.73e-25
  1.1898e+05   1.65e-25
  1.2315e+05   1.57e-25
  1.2747e+05   1.49e-25
  1.3193e+05   1.42e-25
  1.3656e+05   1.35e-25
  1.4134e+05   1.28e-25
  1.4629e+05   1.22e-25
  1.5142e+05   1.16e-25
  1.5673e+05   1.10e-25
  1.6222e+05   1.05e-25
  1.6790e+05   9.92e-26
  1.7379e+05   9.41e-26
  1.7988e+05   8.93e-26
  1.8618e+05   8.46e-26
  1.9271e+05   8.02e-26
  1.9946e+05   7.60e-26
  2.0645e+05   7.19e-26
  2.1369e+05   6.80e-26
  2.2117e+05   6.43e-26
  2.2892e+05   6.08e-26
  2.3695e+05   5.74e-26
  2.4525e+05   5.42e-26
  2.5385e+05   5.11e-26
  2.6274e+05   4.81e-26
  2.7195e+05   4.53e-26
  2.8148e+05   4.26e-26
  2.9134e+05   4.01e-26
  3.0155e+05   3.76e-26
  3.1212e+05   3.53e-26
  3.2306e+05   3.31e-26
  3.3438e+05   3.10e-26
  3.4610e+05   2.90e-26
  3.5823e+05   2.71e-26
  3.7078e+05   2.53e-26
  3.8377e+05   2.36e-26
  3.9722e+05   2.20e-26
  4.1114e+05   2.05e-26
  4.2555e+05   1.90e-26
  4.4046e+05   1.77e-26
  4.5590e+05   1.65e-26
  4.7188e+05   1.53e-26
  4.8841e+05   1.42e-26
  5.0553e+05   1.32e-26
  5.2324e+05   1.22e-26
  5.4158e+05   1.13e-26
  5.6056e+05   1.05e-26
  5.8020e+05   9.67e-27
  6.0054e+05   8.93e-27
  6.2158e+05   8.25e-27
  6.4337e+05   7.61e-27
  6.6591e+05   7.02e-27
  6.8925e+05   6.47e-27
  7.1340e+05   5.95e-27
  7.3840e+05   5.48e-27
  7.6428e+05   5.04e-27
  7.9106e+05   4.63e-27
  8.1878e+05   4.25e-27
  8.4748e+05   3.90e-27
  8.7718e+05   3.58e-27
  9.0792e+05   3.28e-27
  9.3973e+05   3.01e-27
  9.7267e+05   2.76e-27
  1.0068e+06   2.53e-27
  1.0420e+06   2.31e-27
  1.0785e+06   2.12e-27
  1.1163e+06   1.94e-27
  1.1555e+06   1.77e-27
  1.1960e+06   1.62e-27
  1.2379e+06   1.48e-27
  1.2813e+06   1.35e-27
  1.3262e+06   1.23e-27
  1.3726e+06   1.13e-27
  1.4207e+06   1.03e-27
  1.4705e+06   9.37e-28
  1.5220e+06   8.54e-28
  1.5754e+06   7.78e-28
  1.6306e+06   7.08e-28
  1.6877e+06   6.43e-28
  1.7469e+06   5.85e-28
  1.8081e+06   5.32e-28
  1.8715e+06   4.82e-28
  1.9370e+06   4.37e-28
  2.0049e+06   3.97e-28
  2.0752e+06   3.58e-28
  2.1479e+06   3.24e-28
  2.2232e+06   2.93e-28
  2.3011e+06   2.64e-28
  2.3817e+06   2.38e-28
  2.4652e+06   2.15e-28
  2.5516e+06   1.93e-28
  2.6410e+06   1.73e-28
  2.7336e+06   1.55e-28
  2.8294e+06   1.39e-28
  2.9285e+06   1.24e-28
  3.0311e+06   1.10e-28
  3.1374e+06   9.85e-29
  3.2473e+06   8.74e-29
  3.3611e+06   7.72e-29
  3.4789e+06   6.86e-29
  3.6008e+06   6.06e-29
  3.7270e+06   5.31e-29
  3.8576e+06   4.69e-29
  3.9928e+06   4.12e-29
  4.1327e+06   3.59e-29
  4.2775e+06   3.13e-29
  4.4274e+06   2.74e-29
  4.5826e+06   2.37e-29
  4.7432e+06   2.05e-29
  4.9094e+06   1.78e-29
  5.0815e+06   1.53e-29
  5.2595e+06   1.30e-29
  5.4438e+06   1.12e-29
  5.6346e+06   9.57e-30
  5.8321e+06   8.08e-30
  6.0365e+06   6.82e-30
  6.2480e+06   5.78e-30
  6.4670e+06   4.84e-30
  6.6936e+06   4.01e-30
  6.9282e+06   3.37e-30
  7.1709e+06   2.80e-30
  7.4222e+06   2.28e-30
  7.6823e+06   1.89e-30
  7.9516e+06   1.55e-30
  8.2302e+06   1.25e-30
  8.5186e+06   1.01e-30
  8.8172e+06   8.14e-31
  9.1262e+06   6.48e-31
  9.4460e+06   5.07e-31
  9.7770e+06   4.04e-31
  1.0120e+07   3.17e-31
  1.0474e+07   2.42e-31
  1.0841e+07   1.88e-31
  1.1221e+07   1.44e-31
  1.1614e+07   1.08e-31
  1.2022e+07   8.02e-32
  1.2443e+07   6.00e-32
  1.2879e+07   4.38e-32
  1.3330e+07   3.12e-32
  1.3797e+07   2.25e-32
  1.4281e+07   1.58e-32
  1.4781e+07   1.08e-32
  1.5299e+07   7.33e-33
  1.5835e+07   4.88e-33
  1.6390e+07   3.13e-33
  1.6965e+07   1.96e-33
  1.7559e+07   1.20e-33
  1.8175e+07   7.08e-34
  1.8812e+07   3.96e-34
  1.9471e+07   2.14e-34
  2.0153e+07   1.09e-34
  2.0859e+07   5.19e-35
  2.1590e+07   2.30e-35
  2.2347e+07   9.38e-36
  2.3130e+07   3.45e-36
  2.3941e+07   1.13e-36
  2.4780e+07   3.27e-37
  2.5648e+07   8.06e-38
  2.6547e+07   1.66e-38
  2.7477e+07   2.87e-39
  2.8440e+07   3.90e-40
