#  E [MeV]   Flux [# cm^{-2} s^{-1}  MeV^{-1}]
  3.0000e+04   9.94e-24
  3.0607e+04   9.82e-24
  3.1227e+04   9.69e-24
  3.1859e+04   9.58e-24
  3.2504e+04   9.46e-24
  3.3163e+04   9.35e-24
  3.3834e+04   9.24e-24
  3.4519e+04   9.12e-24
  3.5218e+04   9.02e-24
  3.5931e+04   8.91e-24
  3.6659e+04   8.80e-24
  3.7401e+04   8.70e-24
  3.8158e+04   8.60e-24
  3.8931e+04   8.49e-24
  3.9719e+04   8.39e-24
  4.0523e+04   8.30e-24
  4.1344e+04   8.20e-24
  4.2181e+04   8.10e-24
  4.3035e+04   8.00e-24
  4.3906e+04   7.91e-24
  4.4795e+04   7.82e-24
  4.5702e+04   7.73e-24
  4.6628e+04   7.63e-24
  4.7572e+04   7.54e-24
  4.8535e+04   7.45e-24
  4.9517e+04   7.37e-24
  5.0520e+04   7.28e-24
  5.1543e+04   7.19e-24
  5.2587e+04   7.11e-24
  5.3651e+04   7.02e-24
  5.4738e+04   6.94e-24
  5.5846e+04   6.86e-24
  5.6977e+04   6.77e-24
  5.8130e+04   6.69e-24
  5.9307e+04   6.61e-24
  6.0508e+04   6.53e-24
  6.1733e+04   6.45e-24
  6.2983e+04   6.38e-24
  6.4258e+04   6.30e-24
  6.5559e+04   6.22e-24
  6.6887e+04   6.15e-24
  6.8241e+04   6.07e-24
  6.9623e+04   6.00e-24
  7.1033e+04   5.92e-24
  7.2471e+04   5.85e-24
  7.3938e+04   5.77e-24
  7.5435e+04   5.70e-24
  7.6963e+04   5.63e-24
  7.8521e+04   5.56e-24
  8.0111e+04   5.48e-24
  8.1733e+04   5.41e-24
  8.3388e+04   5.34e-24
  8.5076e+04   5.27e-24
  8.6799e+04   5.20e-24
  8.8556e+04   5.13e-24
  9.0349e+04   5.06e-24
  9.2178e+04   4.99e-24
  9.4045e+04   4.92e-24
  9.5949e+04   4.86e-24
  9.7892e+04   4.79e-24
  9.9874e+04   4.72e-24
  1.0190e+05   4.65e-24
  1.0396e+05   4.59e-24
  1.0606e+05   4.52e-24
  1.0821e+05   4.46e-24
  1.1040e+05   4.39e-24
  1.1264e+05   4.32e-24
  1.1492e+05   4.26e-24
  1.1725e+05   4.19e-24
  1.1962e+05   4.13e-24
  1.2204e+05   4.07e-24
  1.2451e+05   4.00e-24
  1.2703e+05   3.94e-24
  1.2961e+05   3.88e-24
  1.3223e+05   3.81e-24
  1.3491e+05   3.75e-24
  1.3764e+05   3.69e-24
  1.4043e+05   3.63e-24
  1.4327e+05   3.57e-24
  1.4617e+05   3.51e-24
  1.4913e+05   3.45e-24
  1.5215e+05   3.39e-24
  1.5523e+05   3.33e-24
  1.5837e+05   3.27e-24
  1.6158e+05   3.21e-24
  1.6485e+05   3.15e-24
  1.6819e+05   3.10e-24
  1.7159e+05   3.04e-24
  1.7507e+05   2.98e-24
  1.7861e+05   2.92e-24
  1.8223e+05   2.87e-24
  1.8592e+05   2.81e-24
  1.8968e+05   2.76e-24
  1.9352e+05   2.70e-24
  1.9744e+05   2.65e-24
  2.0144e+05   2.59e-24
  2.0552e+05   2.54e-24
  2.0968e+05   2.48e-24
  2.1392e+05   2.43e-24
  2.1826e+05   2.38e-24
  2.2267e+05   2.32e-24
  2.2718e+05   2.27e-24
  2.3178e+05   2.22e-24
  2.3648e+05   2.17e-24
  2.4126e+05   2.12e-24
  2.4615e+05   2.07e-24
  2.5113e+05   2.02e-24
  2.5622e+05   1.97e-24
  2.6141e+05   1.92e-24
  2.6670e+05   1.87e-24
  2.7210e+05   1.82e-24
  2.7761e+05   1.78e-24
  2.8323e+05   1.73e-24
  2.8896e+05   1.68e-24
  2.9481e+05   1.63e-24
  3.0078e+05   1.59e-24
  3.0687e+05   1.55e-24
  3.1309e+05   1.50e-24
  3.1943e+05   1.46e-24
  3.2589e+05   1.41e-24
  3.3249e+05   1.37e-24
  3.3922e+05   1.33e-24
  3.4609e+05   1.29e-24
  3.5310e+05   1.25e-24
  3.6025e+05   1.21e-24
  3.6754e+05   1.17e-24
  3.7498e+05   1.13e-24
  3.8258e+05   1.09e-24
  3.9032e+05   1.05e-24
  3.9823e+05   1.02e-24
  4.0629e+05   9.81e-25
  4.1452e+05   9.46e-25
  4.2291e+05   9.12e-25
  4.3147e+05   8.78e-25
  4.4021e+05   8.46e-25
  4.4912e+05   8.13e-25
  4.5821e+05   7.81e-25
  4.6749e+05   7.50e-25
  4.7696e+05   7.20e-25
  4.8661e+05   6.92e-25
  4.9647e+05   6.63e-25
  5.0652e+05   6.35e-25
  5.1678e+05   6.08e-25
  5.2724e+05   5.82e-25
  5.3791e+05   5.56e-25
  5.4881e+05   5.32e-25
  5.5992e+05   5.07e-25
  5.7125e+05   4.84e-25
  5.8282e+05   4.61e-25
  5.9462e+05   4.39e-25
  6.0666e+05   4.18e-25
  6.1894e+05   3.98e-25
  6.3148e+05   3.77e-25
  6.4426e+05   3.58e-25
  6.5731e+05   3.39e-25
  6.7061e+05   3.21e-25
  6.8419e+05   3.03e-25
  6.9805e+05   2.86e-25
  7.1218e+05   2.70e-25
  7.2660e+05   2.55e-25
  7.4131e+05   2.40e-25
  7.5632e+05   2.25e-25
  7.7163e+05   2.12e-25
  7.8726e+05   1.99e-25
  8.0320e+05   1.86e-25
  8.1946e+05   1.74e-25
  8.3605e+05   1.63e-25
  8.5298e+05   1.52e-25
  8.7025e+05   1.42e-25
  8.8787e+05   1.32e-25
  9.0585e+05   1.23e-25
  9.2419e+05   1.15e-25
  9.4290e+05   1.06e-25
  9.6199e+05   9.85e-26
  9.8147e+05   9.10e-26
  1.0013e+06   8.43e-26
  1.0216e+06   7.80e-26
  1.0423e+06   7.19e-26
  1.0634e+06   6.61e-26
  1.0849e+06   6.05e-26
  1.1069e+06   5.53e-26
  1.1293e+06   5.09e-26
  1.1522e+06   4.68e-26
  1.1755e+06   4.28e-26
  1.1993e+06   3.89e-26
  1.2236e+06   3.53e-26
  1.2484e+06   3.21e-26
  1.2736e+06   2.94e-26
  1.2994e+06   2.69e-26
  1.3257e+06   2.44e-26
  1.3526e+06   2.21e-26
  1.3800e+06   1.98e-26
  1.4079e+06   1.82e-26
  1.4364e+06   1.67e-26
  1.4655e+06   1.54e-26
  1.4952e+06   1.40e-26
  1.5255e+06   1.28e-26
  1.5563e+06   1.16e-26
  1.5879e+06   1.09e-26
  1.6200e+06   1.03e-26
