#  E [MeV]   Flux [# cm^{-2} s^{-1}  MeV^{-1}]
  3.0000e+04   4.11e-20
  3.0943e+04   3.95e-20
  3.1916e+04   3.80e-20
  3.2920e+04   3.65e-20
  3.3955e+04   3.50e-20
  3.5023e+04   3.36e-20
  3.6124e+04   3.22e-20
  3.7260e+04   3.10e-20
  3.8432e+04   2.97e-20
  3.9640e+04   2.85e-20
  4.0887e+04   2.73e-20
  4.2172e+04   2.62e-20
  4.3499e+04   2.51e-20
  4.4866e+04   2.41e-20
  4.6277e+04   2.31e-20
  4.7732e+04   2.21e-20
  4.9233e+04   2.12e-20
  5.0781e+04   2.03e-20
  5.2378e+04   1.95e-20
  5.4025e+04   1.86e-20
  5.5724e+04   1.78e-20
  5.7476e+04   1.71e-20
  5.9284e+04   1.63e-20
  6.1148e+04   1.56e-20
  6.3071e+04   1.50e-20
  6.5054e+04   1.43e-20
  6.7100e+04   1.37e-20
  6.9210e+04   1.31e-20
  7.1386e+04   1.25e-20
  7.3631e+04   1.19e-20
  7.5946e+04   1.14e-20
  7.8334e+04   1.09e-20
  8.0797e+04   1.04e-20
  8.3338e+04   9.94e-21
  8.5959e+04   9.48e-21
  8.8662e+04   9.04e-21
  9.1450e+04   8.62e-21
  9.4325e+04   8.22e-21
  9.7291e+04   7.83e-21
  1.0035e+05   7.46e-21
  1.0351e+05   7.10e-21
  1.0676e+05   6.76e-21
  1.1012e+05   6.44e-21
  1.1358e+05   6.12e-21
  1.1715e+05   5.82e-21
  1.2084e+05   5.54e-21
  1.2464e+05   5.26e-21
  1.2856e+05   5.00e-21
  1.3260e+05   4.75e-21
  1.3677e+05   4.51e-21
  1.4107e+05   4.28e-21
  1.4550e+05   4.05e-21
  1.5008e+05   3.84e-21
  1.5480e+05   3.64e-21
  1.5967e+05   3.45e-21
  1.6469e+05   3.27e-21
  1.6987e+05   3.09e-21
  1.7521e+05   2.93e-21
  1.8072e+05   2.77e-21
  1.8640e+05   2.62e-21
  1.9226e+05   2.47e-21
  1.9831e+05   2.34e-21
  2.0454e+05   2.21e-21
  2.1097e+05   2.08e-21
  2.1761e+05   1.96e-21
  2.2445e+05   1.85e-21
  2.3151e+05   1.74e-21
  2.3879e+05   1.64e-21
  2.4630e+05   1.54e-21
  2.5404e+05   1.45e-21
  2.6203e+05   1.36e-21
  2.7027e+05   1.28e-21
  2.7877e+05   1.20e-21
  2.8753e+05   1.13e-21
  2.9657e+05   1.05e-21
  3.0590e+05   9.88e-22
  3.1552e+05   9.24e-22
  3.2544e+05   8.64e-22
  3.3567e+05   8.07e-22
  3.4623e+05   7.53e-22
  3.5712e+05   7.02e-22
  3.6835e+05   6.54e-22
  3.7993e+05   6.08e-22
  3.9188e+05   5.66e-22
  4.0420e+05   5.26e-22
  4.1691e+05   4.88e-22
  4.3002e+05   4.53e-22
  4.4354e+05   4.20e-22
  4.5749e+05   3.88e-22
  4.7187e+05   3.59e-22
  4.8671e+05   3.32e-22
  5.0202e+05   3.07e-22
  5.1780e+05   2.83e-22
  5.3409e+05   2.61e-22
  5.5088e+05   2.40e-22
  5.6820e+05   2.21e-22
  5.8607e+05   2.03e-22
  6.0450e+05   1.87e-22
  6.2351e+05   1.72e-22
  6.4311e+05   1.57e-22
  6.6334e+05   1.44e-22
  6.8419e+05   1.32e-22
  7.0571e+05   1.21e-22
  7.2790e+05   1.10e-22
  7.5079e+05   1.01e-22
  7.7440e+05   9.19e-23
  7.9875e+05   8.39e-23
  8.2387e+05   7.64e-23
  8.4977e+05   6.95e-23
  8.7649e+05   6.34e-23
  9.0405e+05   5.76e-23
  9.3248e+05   5.23e-23
  9.6180e+05   4.75e-23
  9.9205e+05   4.32e-23
  1.0232e+06   3.92e-23
  1.0554e+06   3.54e-23
  1.0886e+06   3.22e-23
  1.1228e+06   2.92e-23
  1.1581e+06   2.64e-23
  1.1946e+06   2.38e-23
  1.2321e+06   2.16e-23
  1.2709e+06   1.95e-23
  1.3108e+06   1.76e-23
  1.3521e+06   1.59e-23
  1.3946e+06   1.44e-23
  1.4384e+06   1.30e-23
  1.4837e+06   1.16e-23
  1.5303e+06   1.05e-23
  1.5784e+06   9.46e-24
  1.6281e+06   8.50e-24
  1.6793e+06   7.60e-24
  1.7321e+06   6.86e-24
  1.7865e+06   6.17e-24
  1.8427e+06   5.52e-24
  1.9006e+06   4.94e-24
  1.9604e+06   4.44e-24
  2.0221e+06   3.98e-24
  2.0856e+06   3.55e-24
  2.1512e+06   3.17e-24
  2.2189e+06   2.85e-24
  2.2886e+06   2.54e-24
  2.3606e+06   2.25e-24
  2.4348e+06   2.02e-24
  2.5114e+06   1.80e-24
  2.5904e+06   1.60e-24
  2.6718e+06   1.41e-24
  2.7558e+06   1.26e-24
  2.8425e+06   1.12e-24
  2.9319e+06   9.92e-25
  3.0241e+06   8.76e-25
  3.1192e+06   7.80e-25
  3.2173e+06   6.90e-25
  3.3184e+06   6.06e-25
  3.4228e+06   5.36e-25
  3.5304e+06   4.76e-25
  3.6414e+06   4.19e-25
  3.7559e+06   3.66e-25
  3.8740e+06   3.25e-25
  3.9958e+06   2.87e-25
  4.1215e+06   2.52e-25
  4.2511e+06   2.20e-25
  4.3848e+06   1.95e-25
  4.5227e+06   1.72e-25
  4.6649e+06   1.50e-25
  4.8116e+06   1.32e-25
  4.9629e+06   1.16e-25
  5.1189e+06   1.02e-25
  5.2799e+06   8.89e-26
  5.4459e+06   7.86e-26
  5.6171e+06   6.95e-26
  5.7938e+06   6.10e-26
  5.9760e+06   5.33e-26
  6.1639e+06   4.74e-26
  6.3577e+06   4.19e-26
  6.5576e+06   3.68e-26
  6.7638e+06   3.24e-26
  6.9765e+06   2.87e-26
  7.1959e+06   2.53e-26
  7.4222e+06   2.22e-26
  7.6556e+06   1.96e-26
  7.8963e+06   1.72e-26
  8.1446e+06   1.51e-26
  8.4007e+06   1.32e-26
  8.6649e+06   1.16e-26
  8.9373e+06   1.01e-26
  9.2184e+06   8.82e-27
  9.5082e+06   7.64e-27
  9.8072e+06   6.63e-27
  1.0116e+07   5.71e-27
  1.0434e+07   4.89e-27
  1.0762e+07   4.16e-27
  1.1100e+07   3.52e-27
  1.1449e+07   2.95e-27
  1.1809e+07   2.44e-27
  1.2181e+07   2.00e-27
  1.2564e+07   1.62e-27
  1.2959e+07   1.30e-27
  1.3366e+07   1.02e-27
  1.3786e+07   8.17e-28
  1.4220e+07   6.43e-28
