#  E [MeV]   Flux [# cm^{-2} s^{-1}  MeV^{-1}]
  3.0000e+04   4.47e-21
  3.0854e+04   4.31e-21
  3.1733e+04   4.15e-21
  3.2636e+04   4.00e-21
  3.3566e+04   3.85e-21
  3.4521e+04   3.71e-21
  3.5504e+04   3.58e-21
  3.6515e+04   3.45e-21
  3.7555e+04   3.32e-21
  3.8625e+04   3.20e-21
  3.9724e+04   3.08e-21
  4.0855e+04   2.96e-21
  4.2019e+04   2.85e-21
  4.3215e+04   2.74e-21
  4.4446e+04   2.64e-21
  4.5711e+04   2.54e-21
  4.7013e+04   2.44e-21
  4.8352e+04   2.35e-21
  4.9728e+04   2.26e-21
  5.1144e+04   2.17e-21
  5.2601e+04   2.09e-21
  5.4099e+04   2.01e-21
  5.5639e+04   1.93e-21
  5.7223e+04   1.85e-21
  5.8853e+04   1.78e-21
  6.0528e+04   1.71e-21
  6.2252e+04   1.64e-21
  6.4025e+04   1.58e-21
  6.5848e+04   1.52e-21
  6.7723e+04   1.46e-21
  6.9651e+04   1.40e-21
  7.1634e+04   1.34e-21
  7.3674e+04   1.29e-21
  7.5772e+04   1.24e-21
  7.7929e+04   1.19e-21
  8.0148e+04   1.14e-21
  8.2431e+04   1.09e-21
  8.4778e+04   1.05e-21
  8.7192e+04   1.01e-21
  8.9674e+04   9.65e-22
  9.2228e+04   9.26e-22
  9.4854e+04   8.88e-22
  9.7555e+04   8.51e-22
  1.0033e+05   8.16e-22
  1.0319e+05   7.82e-22
  1.0613e+05   7.50e-22
  1.0915e+05   7.19e-22
  1.1226e+05   6.89e-22
  1.1545e+05   6.60e-22
  1.1874e+05   6.33e-22
  1.2212e+05   6.06e-22
  1.2560e+05   5.81e-22
  1.2918e+05   5.56e-22
  1.3286e+05   5.32e-22
  1.3664e+05   5.10e-22
  1.4053e+05   4.88e-22
  1.4453e+05   4.67e-22
  1.4865e+05   4.47e-22
  1.5288e+05   4.28e-22
  1.5723e+05   4.10e-22
  1.6171e+05   3.92e-22
  1.6631e+05   3.75e-22
  1.7105e+05   3.59e-22
  1.7592e+05   3.44e-22
  1.8093e+05   3.29e-22
  1.8608e+05   3.14e-22
  1.9138e+05   3.00e-22
  1.9683e+05   2.87e-22
  2.0243e+05   2.74e-22
  2.0820e+05   2.62e-22
  2.1413e+05   2.50e-22
  2.2022e+05   2.39e-22
  2.2649e+05   2.29e-22
  2.3294e+05   2.18e-22
  2.3958e+05   2.08e-22
  2.4640e+05   1.99e-22
  2.5341e+05   1.90e-22
  2.6063e+05   1.81e-22
  2.6805e+05   1.73e-22
  2.7568e+05   1.65e-22
  2.8353e+05   1.57e-22
  2.9161e+05   1.50e-22
  2.9991e+05   1.43e-22
  3.0845e+05   1.37e-22
  3.1723e+05   1.30e-22
  3.2627e+05   1.24e-22
  3.3556e+05   1.18e-22
  3.4511e+05   1.13e-22
  3.5494e+05   1.07e-22
  3.6504e+05   1.02e-22
  3.7544e+05   9.73e-23
  3.8613e+05   9.26e-23
  3.9712e+05   8.82e-23
  4.0843e+05   8.39e-23
  4.2006e+05   7.97e-23
  4.3202e+05   7.59e-23
  4.4432e+05   7.22e-23
  4.5698e+05   6.86e-23
  4.6999e+05   6.52e-23
  4.8337e+05   6.20e-23
  4.9713e+05   5.89e-23
  5.1129e+05   5.60e-23
  5.2585e+05   5.32e-23
  5.4082e+05   5.05e-23
  5.5622e+05   4.80e-23
  5.7206e+05   4.56e-23
  5.8835e+05   4.33e-23
  6.0510e+05   4.11e-23
  6.2233e+05   3.91e-23
  6.4005e+05   3.71e-23
  6.5828e+05   3.52e-23
  6.7702e+05   3.34e-23
  6.9630e+05   3.18e-23
  7.1613e+05   3.02e-23
  7.3652e+05   2.86e-23
  7.5749e+05   2.72e-23
  7.7906e+05   2.58e-23
  8.0124e+05   2.45e-23
  8.2406e+05   2.33e-23
  8.4752e+05   2.21e-23
  8.7165e+05   2.10e-23
  8.9647e+05   2.00e-23
  9.2200e+05   1.90e-23
  9.4825e+05   1.80e-23
  9.7526e+05   1.72e-23
  1.0030e+06   1.63e-23
  1.0316e+06   1.55e-23
  1.0610e+06   1.48e-23
  1.0912e+06   1.41e-23
  1.1222e+06   1.34e-23
  1.1542e+06   1.28e-23
  1.1871e+06   1.22e-23
  1.2209e+06   1.16e-23
  1.2556e+06   1.11e-23
  1.2914e+06   1.06e-23
  1.3281e+06   1.01e-23
  1.3660e+06   9.62e-24
  1.4049e+06   9.19e-24
  1.4449e+06   8.77e-24
  1.4860e+06   8.38e-24
  1.5283e+06   8.00e-24
  1.5718e+06   7.65e-24
  1.6166e+06   7.31e-24
  1.6626e+06   6.99e-24
  1.7100e+06   6.68e-24
  1.7587e+06   6.39e-24
  1.8087e+06   6.12e-24
  1.8602e+06   5.85e-24
  1.9132e+06   5.60e-24
  1.9677e+06   5.36e-24
  2.0237e+06   5.13e-24
  2.0813e+06   4.91e-24
  2.1406e+06   4.70e-24
  2.2016e+06   4.49e-24
  2.2642e+06   4.30e-24
  2.3287e+06   4.11e-24
  2.3950e+06   3.93e-24
  2.4632e+06   3.76e-24
  2.5334e+06   3.60e-24
  2.6055e+06   3.44e-24
  2.6797e+06   3.29e-24
  2.7560e+06   3.14e-24
  2.8345e+06   3.00e-24
  2.9152e+06   2.86e-24
  2.9982e+06   2.73e-24
  3.0836e+06   2.60e-24
  3.1714e+06   2.48e-24
  3.2617e+06   2.36e-24
  3.3545e+06   2.25e-24
  3.4501e+06   2.14e-24
  3.5483e+06   2.04e-24
  3.6493e+06   1.94e-24
  3.7532e+06   1.84e-24
  3.8601e+06   1.75e-24
  3.9700e+06   1.66e-24
  4.0831e+06   1.57e-24
  4.1993e+06   1.49e-24
  4.3189e+06   1.41e-24
  4.4419e+06   1.33e-24
  4.5684e+06   1.26e-24
  4.6985e+06   1.19e-24
  4.8322e+06   1.12e-24
  4.9698e+06   1.06e-24
  5.1114e+06   9.95e-25
  5.2569e+06   9.35e-25
  5.4066e+06   8.77e-25
  5.5605e+06   8.23e-25
  5.7189e+06   7.70e-25
  5.8817e+06   7.20e-25
  6.0492e+06   6.72e-25
  6.2214e+06   6.25e-25
  6.3986e+06   5.81e-25
  6.5808e+06   5.39e-25
  6.7682e+06   4.99e-25
  6.9609e+06   4.60e-25
  7.1591e+06   4.23e-25
  7.3630e+06   3.88e-25
  7.5726e+06   3.56e-25
  7.7882e+06   3.27e-25
  8.0100e+06   3.00e-25
