#  E [MeV]   Flux [# cm^{-2} s^{-1}  MeV^{-1}]
  3.0000e+04   9.76e-27
  3.1141e+04   9.38e-27
  3.2326e+04   9.02e-27
  3.3556e+04   8.68e-27
  3.4832e+04   8.34e-27
  3.6157e+04   8.01e-27
  3.7533e+04   7.70e-27
  3.8961e+04   7.40e-27
  4.0443e+04   7.10e-27
  4.1982e+04   6.82e-27
  4.3579e+04   6.54e-27
  4.5237e+04   6.28e-27
  4.6958e+04   6.03e-27
  4.8744e+04   5.78e-27
  5.0598e+04   5.54e-27
  5.2523e+04   5.31e-27
  5.4521e+04   5.09e-27
  5.6596e+04   4.88e-27
  5.8749e+04   4.67e-27
  6.0984e+04   4.48e-27
  6.3304e+04   4.29e-27
  6.5712e+04   4.10e-27
  6.8212e+04   3.93e-27
  7.0807e+04   3.76e-27
  7.3500e+04   3.59e-27
  7.6297e+04   3.43e-27
  7.9199e+04   3.28e-27
  8.2212e+04   3.14e-27
  8.5340e+04   3.00e-27
  8.8586e+04   2.86e-27
  9.1956e+04   2.73e-27
  9.5455e+04   2.61e-27
  9.9086e+04   2.49e-27
  1.0286e+05   2.37e-27
  1.0677e+05   2.26e-27
  1.1083e+05   2.15e-27
  1.1505e+05   2.05e-27
  1.1942e+05   1.95e-27
  1.2397e+05   1.86e-27
  1.2868e+05   1.77e-27
  1.3358e+05   1.68e-27
  1.3866e+05   1.60e-27
  1.4394e+05   1.52e-27
  1.4941e+05   1.45e-27
  1.5509e+05   1.37e-27
  1.6100e+05   1.30e-27
  1.6712e+05   1.24e-27
  1.7348e+05   1.17e-27
  1.8008e+05   1.11e-27
  1.8693e+05   1.05e-27
  1.9404e+05   9.96e-28
  2.0142e+05   9.42e-28
  2.0908e+05   8.91e-28
  2.1704e+05   8.42e-28
  2.2529e+05   7.95e-28
  2.3387e+05   7.51e-28
  2.4276e+05   7.08e-28
  2.5200e+05   6.68e-28
  2.6158e+05   6.29e-28
  2.7154e+05   5.92e-28
  2.8187e+05   5.57e-28
  2.9259e+05   5.23e-28
  3.0372e+05   4.91e-28
  3.1527e+05   4.61e-28
  3.2727e+05   4.32e-28
  3.3972e+05   4.05e-28
  3.5264e+05   3.79e-28
  3.6606e+05   3.55e-28
  3.7998e+05   3.32e-28
  3.9444e+05   3.10e-28
  4.0945e+05   2.89e-28
  4.2502e+05   2.70e-28
  4.4119e+05   2.51e-28
  4.5798e+05   2.34e-28
  4.7540e+05   2.18e-28
  4.9348e+05   2.02e-28
  5.1226e+05   1.88e-28
  5.3175e+05   1.75e-28
  5.5198e+05   1.62e-28
  5.7297e+05   1.50e-28
  5.9477e+05   1.39e-28
  6.1740e+05   1.29e-28
  6.4089e+05   1.20e-28
  6.6527e+05   1.11e-28
  6.9058e+05   1.02e-28
  7.1685e+05   9.48e-29
  7.4412e+05   8.76e-29
  7.7243e+05   8.10e-29
  8.0181e+05   7.50e-29
  8.3232e+05   6.93e-29
  8.6398e+05   6.41e-29
  8.9685e+05   5.93e-29
  9.3097e+05   5.49e-29
  9.6638e+05   5.08e-29
  1.0031e+06   4.70e-29
  1.0413e+06   4.35e-29
  1.0809e+06   4.03e-29
  1.1220e+06   3.74e-29
  1.1647e+06   3.46e-29
  1.2090e+06   3.21e-29
  1.2550e+06   2.98e-29
  1.3028e+06   2.77e-29
  1.3523e+06   2.57e-29
  1.4038e+06   2.39e-29
  1.4572e+06   2.22e-29
  1.5126e+06   2.07e-29
  1.5702e+06   1.93e-29
  1.6299e+06   1.80e-29
  1.6919e+06   1.67e-29
  1.7563e+06   1.56e-29
  1.8231e+06   1.46e-29
  1.8925e+06   1.36e-29
  1.9645e+06   1.27e-29
  2.0392e+06   1.19e-29
  2.1168e+06   1.11e-29
  2.1973e+06   1.04e-29
  2.2809e+06   9.72e-30
  2.3677e+06   9.09e-30
  2.4577e+06   8.51e-30
  2.5512e+06   7.97e-30
  2.6483e+06   7.46e-30
  2.7490e+06   6.99e-30
  2.8536e+06   6.54e-30
  2.9622e+06   6.12e-30
  3.0749e+06   5.74e-30
  3.1918e+06   5.37e-30
  3.3133e+06   5.03e-30
  3.4393e+06   4.70e-30
  3.5702e+06   4.40e-30
  3.7060e+06   4.11e-30
  3.8470e+06   3.84e-30
  3.9933e+06   3.59e-30
  4.1452e+06   3.35e-30
  4.3029e+06   3.12e-30
  4.4666e+06   2.90e-30
  4.6366e+06   2.70e-30
  4.8129e+06   2.51e-30
  4.9960e+06   2.33e-30
  5.1861e+06   2.15e-30
  5.3834e+06   1.99e-30
  5.5882e+06   1.84e-30
  5.8008e+06   1.69e-30
  6.0215e+06   1.56e-30
  6.2506e+06   1.43e-30
  6.4883e+06   1.31e-30
  6.7352e+06   1.19e-30
  6.9914e+06   1.08e-30
  7.2574e+06   9.78e-31
  7.5335e+06   8.82e-31
  7.8201e+06   7.91e-31
  8.1176e+06   7.07e-31
  8.4264e+06   6.28e-31
  8.7470e+06   5.55e-31
  9.0797e+06   4.87e-31
  9.4251e+06   4.24e-31
  9.7837e+06   3.67e-31
  1.0156e+07   3.15e-31
  1.0542e+07   2.68e-31
  1.0943e+07   2.25e-31
  1.1360e+07   1.87e-31
  1.1792e+07   1.54e-31
  1.2240e+07   1.25e-31
  1.2706e+07   9.95e-32
  1.3189e+07   7.80e-32
  1.3691e+07   6.00e-32
  1.4212e+07   4.52e-32
  1.4753e+07   3.32e-32
  1.5314e+07   2.38e-32
  1.5897e+07   1.65e-32
  1.6501e+07   1.11e-32
  1.7129e+07   7.19e-33
  1.7781e+07   4.46e-33
  1.8457e+07   2.63e-33
  1.9159e+07   1.47e-33
  1.9888e+07   7.68e-34
  2.0645e+07   3.74e-34
  2.1430e+07   1.67e-34
  2.2245e+07   6.79e-35
  2.3092e+07   2.47e-35
  2.3970e+07   7.88e-36
  2.4882e+07   2.16e-36
  2.5829e+07   4.96e-37
  2.6811e+07   9.25e-38
  2.7831e+07   1.35e-38
  2.8890e+07   1.47e-39
  2.9989e+07   1.13e-40
  3.1130e+07   5.71e-42
  3.2314e+07   1.75e-43
  3.3544e+07   2.92e-45
  3.4820e+07   2.32e-47
  3.6144e+07   7.46e-50
  3.7519e+07   7.84e-53
  3.8947e+07   2.06e-56
  4.0428e+07   9.63e-61
  4.1966e+07   5.12e-66
  4.3563e+07   4.18e-71
  4.5220e+07   3.93e-71
  4.6941e+07   3.69e-71
  4.8726e+07   3.50e-71
  5.0580e+07   3.31e-71
