#  E [MeV]   Flux [# cm^{-2} s^{-1}  MeV^{-1}]
  3.0000e+04   2.16e-21
  3.0675e+04   2.09e-21
  3.1366e+04   2.03e-21
  3.2072e+04   1.97e-21
  3.2794e+04   1.90e-21
  3.3533e+04   1.84e-21
  3.4288e+04   1.79e-21
  3.5060e+04   1.73e-21
  3.5849e+04   1.68e-21
  3.6656e+04   1.62e-21
  3.7482e+04   1.57e-21
  3.8326e+04   1.52e-21
  3.9188e+04   1.47e-21
  4.0071e+04   1.43e-21
  4.0973e+04   1.38e-21
  4.1896e+04   1.34e-21
  4.2839e+04   1.30e-21
  4.3803e+04   1.26e-21
  4.4790e+04   1.22e-21
  4.5798e+04   1.18e-21
  4.6829e+04   1.14e-21
  4.7884e+04   1.10e-21
  4.8962e+04   1.07e-21
  5.0064e+04   1.04e-21
  5.1191e+04   1.00e-21
  5.2344e+04   9.71e-22
  5.3522e+04   9.40e-22
  5.4727e+04   9.11e-22
  5.5960e+04   8.82e-22
  5.7219e+04   8.54e-22
  5.8508e+04   8.27e-22
  5.9825e+04   8.00e-22
  6.1172e+04   7.75e-22
  6.2549e+04   7.51e-22
  6.3958e+04   7.27e-22
  6.5398e+04   7.04e-22
  6.6870e+04   6.81e-22
  6.8376e+04   6.60e-22
  6.9915e+04   6.39e-22
  7.1489e+04   6.19e-22
  7.3099e+04   6.00e-22
  7.4745e+04   5.81e-22
  7.6428e+04   5.62e-22
  7.8148e+04   5.45e-22
  7.9908e+04   5.28e-22
  8.1707e+04   5.11e-22
  8.3547e+04   4.95e-22
  8.5428e+04   4.79e-22
  8.7351e+04   4.64e-22
  8.9318e+04   4.50e-22
  9.1329e+04   4.36e-22
  9.3385e+04   4.22e-22
  9.5488e+04   4.09e-22
  9.7638e+04   3.96e-22
  9.9836e+04   3.84e-22
  1.0208e+05   3.72e-22
  1.0438e+05   3.60e-22
  1.0673e+05   3.49e-22
  1.0914e+05   3.38e-22
  1.1159e+05   3.28e-22
  1.1411e+05   3.17e-22
  1.1667e+05   3.07e-22
  1.1930e+05   2.98e-22
  1.2199e+05   2.89e-22
  1.2473e+05   2.80e-22
  1.2754e+05   2.71e-22
  1.3041e+05   2.63e-22
  1.3335e+05   2.55e-22
  1.3635e+05   2.47e-22
  1.3942e+05   2.39e-22
  1.4256e+05   2.32e-22
  1.4577e+05   2.25e-22
  1.4905e+05   2.18e-22
  1.5241e+05   2.11e-22
  1.5584e+05   2.05e-22
  1.5935e+05   1.98e-22
  1.6294e+05   1.92e-22
  1.6661e+05   1.86e-22
  1.7036e+05   1.81e-22
  1.7419e+05   1.75e-22
  1.7812e+05   1.70e-22
  1.8213e+05   1.64e-22
  1.8623e+05   1.59e-22
  1.9042e+05   1.54e-22
  1.9471e+05   1.50e-22
  1.9909e+05   1.45e-22
  2.0357e+05   1.41e-22
  2.0816e+05   1.36e-22
  2.1284e+05   1.32e-22
  2.1763e+05   1.28e-22
  2.2253e+05   1.24e-22
  2.2755e+05   1.20e-22
  2.3267e+05   1.16e-22
  2.3791e+05   1.13e-22
  2.4326e+05   1.09e-22
  2.4874e+05   1.06e-22
  2.5434e+05   1.02e-22
  2.6007e+05   9.90e-23
  2.6592e+05   9.59e-23
  2.7191e+05   9.28e-23
  2.7803e+05   8.99e-23
  2.8429e+05   8.70e-23
  2.9069e+05   8.42e-23
  2.9724e+05   8.15e-23
  3.0393e+05   7.88e-23
  3.1077e+05   7.63e-23
  3.1777e+05   7.38e-23
  3.2493e+05   7.14e-23
  3.3224e+05   6.90e-23
  3.3972e+05   6.67e-23
  3.4737e+05   6.45e-23
  3.5519e+05   6.24e-23
  3.6319e+05   6.03e-23
  3.7137e+05   5.82e-23
  3.7973e+05   5.63e-23
  3.8828e+05   5.44e-23
  3.9702e+05   5.25e-23
  4.0596e+05   5.07e-23
  4.1510e+05   4.90e-23
  4.2444e+05   4.73e-23
  4.3400e+05   4.56e-23
  4.4377e+05   4.40e-23
  4.5376e+05   4.25e-23
  4.6398e+05   4.10e-23
  4.7443e+05   3.95e-23
  4.8511e+05   3.81e-23
  4.9603e+05   3.67e-23
  5.0720e+05   3.54e-23
  5.1862e+05   3.41e-23
  5.3030e+05   3.29e-23
  5.4224e+05   3.16e-23
  5.5444e+05   3.05e-23
  5.6693e+05   2.93e-23
  5.7969e+05   2.82e-23
  5.9274e+05   2.72e-23
  6.0609e+05   2.61e-23
  6.1974e+05   2.51e-23
  6.3369e+05   2.42e-23
  6.4796e+05   2.33e-23
  6.6255e+05   2.24e-23
  6.7746e+05   2.15e-23
  6.9272e+05   2.07e-23
  7.0831e+05   1.99e-23
  7.2426e+05   1.91e-23
  7.4057e+05   1.84e-23
  7.5724e+05   1.76e-23
  7.7429e+05   1.69e-23
  7.9172e+05   1.63e-23
  8.0955e+05   1.56e-23
  8.2778e+05   1.50e-23
  8.4641e+05   1.44e-23
  8.6547e+05   1.39e-23
  8.8496e+05   1.33e-23
  9.0488e+05   1.28e-23
  9.2526e+05   1.23e-23
  9.4609e+05   1.18e-23
  9.6739e+05   1.13e-23
  9.8917e+05   1.09e-23
  1.0114e+06   1.04e-23
  1.0342e+06   1.00e-23
  1.0575e+06   9.62e-24
  1.0813e+06   9.23e-24
  1.1057e+06   8.86e-24
  1.1305e+06   8.51e-24
  1.1560e+06   8.17e-24
  1.1820e+06   7.85e-24
  1.2086e+06   7.54e-24
  1.2359e+06   7.24e-24
  1.2637e+06   6.95e-24
  1.2921e+06   6.68e-24
  1.3212e+06   6.41e-24
  1.3510e+06   6.16e-24
  1.3814e+06   5.92e-24
  1.4125e+06   5.69e-24
  1.4443e+06   5.46e-24
  1.4768e+06   5.25e-24
  1.5101e+06   5.04e-24
  1.5441e+06   4.84e-24
  1.5788e+06   4.65e-24
  1.6144e+06   4.47e-24
  1.6507e+06   4.29e-24
  1.6879e+06   4.12e-24
  1.7259e+06   3.96e-24
  1.7648e+06   3.81e-24
  1.8045e+06   3.66e-24
  1.8451e+06   3.51e-24
  1.8867e+06   3.37e-24
  1.9291e+06   3.24e-24
  1.9726e+06   3.11e-24
  2.0170e+06   2.98e-24
  2.0624e+06   2.86e-24
  2.1088e+06   2.75e-24
  2.1563e+06   2.63e-24
  2.2049e+06   2.53e-24
  2.2545e+06   2.42e-24
  2.3053e+06   2.32e-24
  2.3572e+06   2.22e-24
  2.4102e+06   2.14e-24
  2.4645e+06   2.06e-24
  2.5200e+06   1.99e-24
