#  E [GeV]   # per interaction  [GeV^{-1}]
  3.0000e+01   1.11e+00
  3.1141e+01   1.06e+00
  3.2326e+01   1.01e+00
  3.3556e+01   9.64e-01
  3.4832e+01   9.20e-01
  3.6157e+01   8.79e-01
  3.7533e+01   8.39e-01
  3.8961e+01   8.01e-01
  4.0443e+01   7.64e-01
  4.1982e+01   7.29e-01
  4.3579e+01   6.95e-01
  4.5237e+01   6.63e-01
  4.6958e+01   6.33e-01
  4.8744e+01   6.03e-01
  5.0598e+01   5.75e-01
  5.2523e+01   5.48e-01
  5.4521e+01   5.22e-01
  5.6596e+01   4.98e-01
  5.8749e+01   4.74e-01
  6.0984e+01   4.52e-01
  6.3304e+01   4.30e-01
  6.5712e+01   4.10e-01
  6.8212e+01   3.90e-01
  7.0807e+01   3.72e-01
  7.3500e+01   3.54e-01
  7.6297e+01   3.37e-01
  7.9199e+01   3.20e-01
  8.2212e+01   3.05e-01
  8.5340e+01   2.90e-01
  8.8586e+01   2.76e-01
  9.1956e+01   2.62e-01
  9.5455e+01   2.49e-01
  9.9086e+01   2.37e-01
  1.0286e+02   2.25e-01
  1.0677e+02   2.14e-01
  1.1083e+02   2.03e-01
  1.1505e+02   1.93e-01
  1.1942e+02   1.83e-01
  1.2397e+02   1.74e-01
  1.2868e+02   1.65e-01
  1.3358e+02   1.57e-01
  1.3866e+02   1.49e-01
  1.4394e+02   1.41e-01
  1.4941e+02   1.34e-01
  1.5509e+02   1.27e-01
  1.6100e+02   1.20e-01
  1.6712e+02   1.14e-01
  1.7348e+02   1.08e-01
  1.8008e+02   1.02e-01
  1.8693e+02   9.66e-02
  1.9404e+02   9.14e-02
  2.0142e+02   8.65e-02
  2.0908e+02   8.18e-02
  2.1704e+02   7.73e-02
  2.2529e+02   7.31e-02
  2.3387e+02   6.90e-02
  2.4276e+02   6.51e-02
  2.5200e+02   6.15e-02
  2.6158e+02   5.80e-02
  2.7154e+02   5.47e-02
  2.8187e+02   5.15e-02
  2.9259e+02   4.85e-02
  3.0372e+02   4.57e-02
  3.1527e+02   4.30e-02
  3.2727e+02   4.04e-02
  3.3972e+02   3.79e-02
  3.5264e+02   3.56e-02
  3.6606e+02   3.34e-02
  3.7998e+02   3.13e-02
  3.9444e+02   2.93e-02
  4.0945e+02   2.75e-02
  4.2502e+02   2.57e-02
  4.4119e+02   2.40e-02
  4.5798e+02   2.24e-02
  4.7540e+02   2.09e-02
  4.9348e+02   1.95e-02
  5.1226e+02   1.82e-02
  5.3175e+02   1.69e-02
  5.5198e+02   1.57e-02
  5.7297e+02   1.46e-02
  5.9477e+02   1.36e-02
  6.1740e+02   1.26e-02
  6.4089e+02   1.17e-02
  6.6527e+02   1.08e-02
  6.9058e+02   9.99e-03
  7.1685e+02   9.25e-03
  7.4412e+02   8.55e-03
  7.7243e+02   7.90e-03
  8.0181e+02   7.31e-03
  8.3232e+02   6.75e-03
  8.6398e+02   6.23e-03
  8.9685e+02   5.76e-03
  9.3097e+02   5.32e-03
  9.6638e+02   4.91e-03
  1.0031e+03   4.54e-03
  1.0413e+03   4.19e-03
  1.0809e+03   3.86e-03
  1.1220e+03   3.56e-03
  1.1647e+03   3.29e-03
  1.2090e+03   3.03e-03
  1.2550e+03   2.79e-03
  1.3028e+03   2.57e-03
  1.3523e+03   2.37e-03
  1.4038e+03   2.18e-03
  1.4572e+03   2.01e-03
  1.5126e+03   1.85e-03
  1.5702e+03   1.70e-03
  1.6299e+03   1.56e-03
  1.6919e+03   1.44e-03
  1.7563e+03   1.32e-03
  1.8231e+03   1.21e-03
  1.8925e+03   1.11e-03
  1.9645e+03   1.02e-03
  2.0392e+03   9.34e-04
  2.1168e+03   8.54e-04
  2.1973e+03   7.82e-04
  2.2809e+03   7.15e-04
  2.3677e+03   6.53e-04
  2.4577e+03   5.96e-04
  2.5512e+03   5.43e-04
  2.6483e+03   4.94e-04
  2.7490e+03   4.49e-04
  2.8536e+03   4.08e-04
  2.9622e+03   3.69e-04
  3.0749e+03   3.34e-04
  3.1918e+03   3.03e-04
  3.3133e+03   2.73e-04
  3.4393e+03   2.46e-04
  3.5702e+03   2.21e-04
  3.7060e+03   1.99e-04
  3.8470e+03   1.78e-04
  3.9933e+03   1.59e-04
  4.1452e+03   1.42e-04
  4.3029e+03   1.26e-04
  4.4666e+03   1.12e-04
  4.6366e+03   9.96e-05
  4.8129e+03   8.78e-05
  4.9960e+03   7.76e-05
  5.1861e+03   6.81e-05
  5.3834e+03   5.94e-05
  5.5882e+03   5.21e-05
  5.8008e+03   4.53e-05
  6.0215e+03   3.91e-05
  6.2506e+03   3.40e-05
  6.4883e+03   2.93e-05
  6.7352e+03   2.50e-05
  6.9914e+03   2.14e-05
  7.2574e+03   1.83e-05
  7.5335e+03   1.54e-05
  7.8201e+03   1.30e-05
  8.1176e+03   1.09e-05
  8.4264e+03   9.09e-06
  8.7470e+03   7.56e-06
  9.0797e+03   6.25e-06
  9.4251e+03   5.10e-06
  9.7837e+03   4.15e-06
  1.0156e+04   3.37e-06
  1.0542e+04   2.68e-06
  1.0943e+04   2.13e-06
  1.1360e+04   1.69e-06
  1.1792e+04   1.31e-06
  1.2240e+04   1.01e-06
  1.2706e+04   7.74e-07
  1.3189e+04   5.80e-07
  1.3691e+04   4.28e-07
  1.4212e+04   3.16e-07
  1.4753e+04   2.26e-07
  1.5314e+04   1.58e-07
  1.5897e+04   1.10e-07
  1.6501e+04   7.43e-08
  1.7129e+04   4.83e-08
  1.7781e+04   3.13e-08
  1.8457e+04   1.93e-08
  1.9159e+04   1.13e-08
  1.9888e+04   6.56e-09
  2.0645e+04   3.57e-09
  2.1430e+04   1.80e-09
  2.2245e+04   8.84e-10
  2.3092e+04   3.97e-10
  2.3970e+04   1.61e-10
  2.4882e+04   6.07e-11
  2.5829e+04   2.01e-11
  2.6811e+04   5.71e-12
  2.7831e+04   1.40e-12
  2.8890e+04   2.79e-13
  2.9989e+04   4.33e-14
  3.1130e+04   5.10e-15
  3.2314e+04   4.23e-16
  3.3544e+04   2.26e-17
  3.4820e+04   7.19e-19
  3.6144e+04   1.19e-20
  3.7519e+04   8.79e-23
  3.8947e+04   2.36e-25
  4.0428e+04   1.77e-28
  4.1966e+04   2.66e-32
  4.3563e+04   5.08e-37
  4.5220e+04   6.84e-43
  4.6941e+04   5.73e-48
  4.8726e+04   5.04e-48
  5.0580e+04   4.47e-48
