#  E [MeV]   Flux [# cm^{-2} s^{-1}  MeV^{-1}]
  3.0000e+04   9.22e-21
  3.1123e+04   8.85e-21
  3.2288e+04   8.49e-21
  3.3497e+04   8.15e-21
  3.4751e+04   7.82e-21
  3.6051e+04   7.51e-21
  3.7401e+04   7.20e-21
  3.8801e+04   6.91e-21
  4.0253e+04   6.63e-21
  4.1760e+04   6.36e-21
  4.3324e+04   6.10e-21
  4.4945e+04   5.85e-21
  4.6628e+04   5.61e-21
  4.8373e+04   5.38e-21
  5.0184e+04   5.16e-21
  5.2063e+04   4.95e-21
  5.4011e+04   4.74e-21
  5.6033e+04   4.54e-21
  5.8131e+04   4.35e-21
  6.0307e+04   4.17e-21
  6.2564e+04   4.00e-21
  6.4906e+04   3.83e-21
  6.7336e+04   3.67e-21
  6.9857e+04   3.51e-21
  7.2472e+04   3.36e-21
  7.5184e+04   3.22e-21
  7.7999e+04   3.08e-21
  8.0919e+04   2.95e-21
  8.3948e+04   2.82e-21
  8.7090e+04   2.70e-21
  9.0350e+04   2.58e-21
  9.3732e+04   2.47e-21
  9.7241e+04   2.36e-21
  1.0088e+05   2.25e-21
  1.0466e+05   2.15e-21
  1.0858e+05   2.06e-21
  1.1264e+05   1.96e-21
  1.1686e+05   1.88e-21
  1.2123e+05   1.79e-21
  1.2577e+05   1.71e-21
  1.3048e+05   1.63e-21
  1.3536e+05   1.56e-21
  1.4043e+05   1.48e-21
  1.4568e+05   1.41e-21
  1.5114e+05   1.35e-21
  1.5680e+05   1.28e-21
  1.6266e+05   1.22e-21
  1.6875e+05   1.16e-21
  1.7507e+05   1.10e-21
  1.8162e+05   1.05e-21
  1.8842e+05   9.97e-22
  1.9548e+05   9.47e-22
  2.0279e+05   8.99e-22
  2.1039e+05   8.53e-22
  2.1826e+05   8.09e-22
  2.2643e+05   7.66e-22
  2.3491e+05   7.26e-22
  2.4370e+05   6.88e-22
  2.5282e+05   6.51e-22
  2.6229e+05   6.16e-22
  2.7211e+05   5.82e-22
  2.8229e+05   5.50e-22
  2.9286e+05   5.18e-22
  3.0382e+05   4.89e-22
  3.1519e+05   4.61e-22
  3.2699e+05   4.34e-22
  3.3923e+05   4.08e-22
  3.5193e+05   3.83e-22
  3.6511e+05   3.60e-22
  3.7877e+05   3.38e-22
  3.9295e+05   3.17e-22
  4.0766e+05   2.97e-22
  4.2292e+05   2.78e-22
  4.3875e+05   2.61e-22
  4.5518e+05   2.44e-22
  4.7222e+05   2.28e-22
  4.8989e+05   2.13e-22
  5.0823e+05   1.98e-22
  5.2726e+05   1.85e-22
  5.4699e+05   1.72e-22
  5.6747e+05   1.60e-22
  5.8871e+05   1.49e-22
  6.1075e+05   1.39e-22
  6.3361e+05   1.29e-22
  6.5733e+05   1.20e-22
  6.8194e+05   1.11e-22
  7.0746e+05   1.03e-22
  7.3395e+05   9.55e-23
  7.6142e+05   8.85e-23
  7.8992e+05   8.20e-23
  8.1949e+05   7.59e-23
  8.5017e+05   7.02e-23
  8.8199e+05   6.50e-23
  9.1501e+05   6.01e-23
  9.4926e+05   5.56e-23
  9.8479e+05   5.14e-23
  1.0217e+06   4.75e-23
  1.0599e+06   4.39e-23
  1.0996e+06   4.06e-23
  1.1407e+06   3.74e-23
  1.1834e+06   3.46e-23
  1.2277e+06   3.19e-23
  1.2737e+06   2.94e-23
  1.3214e+06   2.72e-23
  1.3708e+06   2.51e-23
  1.4222e+06   2.31e-23
  1.4754e+06   2.13e-23
  1.5306e+06   1.97e-23
  1.5879e+06   1.81e-23
  1.6474e+06   1.67e-23
  1.7090e+06   1.54e-23
  1.7730e+06   1.42e-23
  1.8394e+06   1.31e-23
  1.9082e+06   1.20e-23
  1.9797e+06   1.11e-23
  2.0538e+06   1.02e-23
  2.1306e+06   9.35e-24
  2.2104e+06   8.60e-24
  2.2931e+06   7.90e-24
  2.3790e+06   7.24e-24
  2.4680e+06   6.65e-24
  2.5604e+06   6.09e-24
  2.6563e+06   5.58e-24
  2.7557e+06   5.11e-24
  2.8589e+06   4.67e-24
  2.9659e+06   4.27e-24
  3.0769e+06   3.89e-24
  3.1921e+06   3.55e-24
  3.3116e+06   3.24e-24
  3.4355e+06   2.94e-24
  3.5641e+06   2.68e-24
  3.6976e+06   2.43e-24
  3.8360e+06   2.20e-24
  3.9796e+06   2.00e-24
  4.1285e+06   1.80e-24
  4.2831e+06   1.63e-24
  4.4434e+06   1.47e-24
  4.6097e+06   1.32e-24
  4.7823e+06   1.18e-24
  4.9613e+06   1.06e-24
  5.1470e+06   9.52e-25
  5.3397e+06   8.48e-25
  5.5396e+06   7.57e-25
  5.7470e+06   6.73e-25
  5.9621e+06   5.96e-25
  6.1853e+06   5.28e-25
  6.4168e+06   4.66e-25
  6.6570e+06   4.10e-25
  6.9062e+06   3.60e-25
  7.1647e+06   3.15e-25
  7.4329e+06   2.74e-25
  7.7112e+06   2.38e-25
  7.9998e+06   2.07e-25
  8.2993e+06   1.78e-25
  8.6100e+06   1.53e-25
  8.9323e+06   1.31e-25
  9.2666e+06   1.11e-25
  9.6135e+06   9.39e-26
  9.9734e+06   7.94e-26
  1.0347e+07   6.64e-26
  1.0734e+07   5.50e-26
  1.1136e+07   4.56e-26
  1.1553e+07   3.74e-26
  1.1985e+07   3.03e-26
  1.2434e+07   2.45e-26
  1.2899e+07   1.96e-26
  1.3382e+07   1.54e-26
  1.3883e+07   1.21e-26
  1.4403e+07   9.33e-27
  1.4942e+07   7.06e-27
  1.5501e+07   5.28e-27
  1.6081e+07   3.89e-27
  1.6683e+07   2.78e-27
  1.7308e+07   1.96e-27
  1.7956e+07   1.35e-27
  1.8628e+07   8.94e-28
  1.9325e+07   5.74e-28
  2.0049e+07   3.57e-28
  2.0799e+07   2.11e-28
  2.1578e+07   1.18e-28
  2.2386e+07   6.25e-29
  2.3224e+07   3.07e-29
  2.4093e+07   1.38e-29
  2.4995e+07   5.69e-30
  2.5930e+07   2.07e-30
  2.6901e+07   6.55e-31
  2.7908e+07   1.80e-31
  2.8953e+07   4.02e-32
  3.0037e+07   7.06e-33
  3.1161e+07   9.61e-34
  3.2327e+07   9.22e-35
  3.3537e+07   5.77e-36
  3.4793e+07   2.29e-37
  3.6095e+07   4.87e-39
  3.7446e+07   4.64e-41
  3.8848e+07   1.92e-43
  4.0302e+07   2.40e-46
  4.1811e+07   6.02e-50
  4.3376e+07   2.17e-54
  4.5000e+07   6.41e-60
