#  E [GeV]   # per interaction  [GeV^{-1}]
  3.0000e+01   2.04e-02
  3.0962e+01   1.97e-02
  3.1955e+01   1.90e-02
  3.2979e+01   1.83e-02
  3.4037e+01   1.77e-02
  3.5128e+01   1.70e-02
  3.6254e+01   1.64e-02
  3.7417e+01   1.58e-02
  3.8616e+01   1.53e-02
  3.9855e+01   1.47e-02
  4.1132e+01   1.42e-02
  4.2451e+01   1.37e-02
  4.3812e+01   1.32e-02
  4.5217e+01   1.27e-02
  4.6667e+01   1.23e-02
  4.8163e+01   1.18e-02
  4.9707e+01   1.14e-02
  5.1301e+01   1.10e-02
  5.2946e+01   1.06e-02
  5.4644e+01   1.02e-02
  5.6396e+01   9.81e-03
  5.8204e+01   9.45e-03
  6.0070e+01   9.10e-03
  6.1996e+01   8.77e-03
  6.3984e+01   8.45e-03
  6.6035e+01   8.14e-03
  6.8153e+01   7.85e-03
  7.0338e+01   7.56e-03
  7.2593e+01   7.29e-03
  7.4921e+01   7.02e-03
  7.7323e+01   6.77e-03
  7.9802e+01   6.52e-03
  8.2361e+01   6.29e-03
  8.5002e+01   6.06e-03
  8.7727e+01   5.84e-03
  9.0540e+01   5.63e-03
  9.3443e+01   5.43e-03
  9.6439e+01   5.24e-03
  9.9531e+01   5.05e-03
  1.0272e+02   4.87e-03
  1.0602e+02   4.70e-03
  1.0942e+02   4.54e-03
  1.1292e+02   4.38e-03
  1.1654e+02   4.23e-03
  1.2028e+02   4.09e-03
  1.2414e+02   3.95e-03
  1.2812e+02   3.82e-03
  1.3223e+02   3.69e-03
  1.3646e+02   3.57e-03
  1.4084e+02   3.45e-03
  1.4536e+02   3.34e-03
  1.5002e+02   3.23e-03
  1.5483e+02   3.12e-03
  1.5979e+02   3.02e-03
  1.6491e+02   2.93e-03
  1.7020e+02   2.83e-03
  1.7566e+02   2.74e-03
  1.8129e+02   2.66e-03
  1.8710e+02   2.58e-03
  1.9310e+02   2.50e-03
  1.9929e+02   2.42e-03
  2.0568e+02   2.35e-03
  2.1228e+02   2.28e-03
  2.1909e+02   2.22e-03
  2.2611e+02   2.15e-03
  2.3336e+02   2.09e-03
  2.4084e+02   2.03e-03
  2.4856e+02   1.97e-03
  2.5653e+02   1.92e-03
  2.6476e+02   1.87e-03
  2.7325e+02   1.82e-03
  2.8201e+02   1.77e-03
  2.9105e+02   1.72e-03
  3.0038e+02   1.68e-03
  3.1002e+02   1.63e-03
  3.1996e+02   1.59e-03
  3.3021e+02   1.55e-03
  3.4080e+02   1.51e-03
  3.5173e+02   1.47e-03
  3.6301e+02   1.43e-03
  3.7465e+02   1.40e-03
  3.8666e+02   1.36e-03
  3.9905e+02   1.33e-03
  4.1185e+02   1.29e-03
  4.2506e+02   1.26e-03
  4.3868e+02   1.23e-03
  4.5275e+02   1.20e-03
  4.6727e+02   1.17e-03
  4.8225e+02   1.14e-03
  4.9771e+02   1.12e-03
  5.1367e+02   1.09e-03
  5.3014e+02   1.06e-03
  5.4714e+02   1.04e-03
  5.6468e+02   1.01e-03
  5.8278e+02   9.89e-04
  6.0147e+02   9.65e-04
  6.2075e+02   9.42e-04
  6.4066e+02   9.20e-04
  6.6120e+02   8.98e-04
  6.8240e+02   8.76e-04
  7.0428e+02   8.55e-04
  7.2686e+02   8.35e-04
  7.5017e+02   8.15e-04
  7.7422e+02   7.95e-04
  7.9904e+02   7.76e-04
  8.2466e+02   7.57e-04
  8.5110e+02   7.39e-04
  8.7839e+02   7.21e-04
  9.0656e+02   7.03e-04
  9.3562e+02   6.85e-04
  9.6562e+02   6.68e-04
  9.9658e+02   6.51e-04
  1.0285e+03   6.35e-04
  1.0615e+03   6.19e-04
  1.0956e+03   6.03e-04
  1.1307e+03   5.87e-04
  1.1669e+03   5.72e-04
  1.2043e+03   5.57e-04
  1.2430e+03   5.42e-04
  1.2828e+03   5.28e-04
  1.3239e+03   5.13e-04
  1.3664e+03   4.99e-04
  1.4102e+03   4.86e-04
  1.4554e+03   4.72e-04
  1.5021e+03   4.59e-04
  1.5502e+03   4.46e-04
  1.6000e+03   4.33e-04
  1.6513e+03   4.20e-04
  1.7042e+03   4.07e-04
  1.7588e+03   3.95e-04
  1.8152e+03   3.83e-04
  1.8734e+03   3.71e-04
  1.9335e+03   3.59e-04
  1.9955e+03   3.48e-04
  2.0595e+03   3.36e-04
  2.1255e+03   3.25e-04
  2.1937e+03   3.14e-04
  2.2640e+03   3.04e-04
  2.3366e+03   2.93e-04
  2.4115e+03   2.83e-04
  2.4888e+03   2.73e-04
  2.5686e+03   2.62e-04
  2.6510e+03   2.52e-04
  2.7360e+03   2.43e-04
  2.8237e+03   2.33e-04
  2.9142e+03   2.24e-04
  3.0077e+03   2.15e-04
  3.1041e+03   2.06e-04
  3.2036e+03   1.97e-04
  3.3064e+03   1.88e-04
  3.4124e+03   1.80e-04
  3.5218e+03   1.72e-04
  3.6347e+03   1.64e-04
  3.7512e+03   1.56e-04
  3.8715e+03   1.48e-04
  3.9957e+03   1.41e-04
  4.1238e+03   1.33e-04
  4.2560e+03   1.26e-04
  4.3924e+03   1.20e-04
  4.5333e+03   1.13e-04
  4.6786e+03   1.07e-04
  4.8286e+03   1.00e-04
  4.9835e+03   9.45e-05
  5.1433e+03   8.87e-05
  5.3082e+03   8.31e-05
  5.4784e+03   7.78e-05
  5.6540e+03   7.27e-05
  5.8353e+03   6.78e-05
  6.0224e+03   6.31e-05
  6.2155e+03   5.87e-05
  6.4148e+03   5.43e-05
  6.6205e+03   5.01e-05
  6.8327e+03   4.62e-05
  7.0518e+03   4.24e-05
  7.2779e+03   3.89e-05
  7.5113e+03   3.55e-05
  7.7521e+03   3.23e-05
  8.0007e+03   2.94e-05
  8.2572e+03   2.66e-05
  8.5219e+03   2.41e-05
  8.7952e+03   2.16e-05
  9.0772e+03   1.94e-05
  9.3682e+03   1.74e-05
  9.6686e+03   1.55e-05
  9.9786e+03   1.38e-05
  1.0299e+04   1.22e-05
  1.0629e+04   1.08e-05
  1.0970e+04   9.43e-06
  1.1321e+04   8.25e-06
  1.1684e+04   7.23e-06
  1.2059e+04   6.28e-06
  1.2446e+04   5.39e-06
  1.2845e+04   4.70e-06
  1.3256e+04   4.08e-06
  1.3681e+04   3.50e-06
  1.4120e+04   2.99e-06
  1.4573e+04   2.62e-06
  1.5040e+04   2.28e-06
  1.5522e+04   1.96e-06
  1.6020e+04   1.72e-06
