#  E [GeV]   # per interaction  [GeV^{-1}]
  3.0000e+01   6.79e-01
  3.1141e+01   6.52e-01
  3.2326e+01   6.27e-01
  3.3556e+01   6.02e-01
  3.4832e+01   5.79e-01
  3.6157e+01   5.56e-01
  3.7533e+01   5.34e-01
  3.8961e+01   5.13e-01
  4.0443e+01   4.93e-01
  4.1982e+01   4.74e-01
  4.3579e+01   4.55e-01
  4.5237e+01   4.37e-01
  4.6958e+01   4.20e-01
  4.8744e+01   4.03e-01
  5.0598e+01   3.87e-01
  5.2523e+01   3.72e-01
  5.4521e+01   3.57e-01
  5.6596e+01   3.43e-01
  5.8749e+01   3.29e-01
  6.0984e+01   3.16e-01
  6.3304e+01   3.03e-01
  6.5712e+01   2.91e-01
  6.8212e+01   2.79e-01
  7.0807e+01   2.68e-01
  7.3500e+01   2.57e-01
  7.6297e+01   2.46e-01
  7.9199e+01   2.36e-01
  8.2212e+01   2.26e-01
  8.5340e+01   2.17e-01
  8.8586e+01   2.08e-01
  9.1956e+01   1.99e-01
  9.5455e+01   1.91e-01
  9.9086e+01   1.83e-01
  1.0286e+02   1.75e-01
  1.0677e+02   1.68e-01
  1.1083e+02   1.61e-01
  1.1505e+02   1.54e-01
  1.1942e+02   1.47e-01
  1.2397e+02   1.41e-01
  1.2868e+02   1.35e-01
  1.3358e+02   1.29e-01
  1.3866e+02   1.23e-01
  1.4394e+02   1.18e-01
  1.4941e+02   1.13e-01
  1.5509e+02   1.08e-01
  1.6100e+02   1.03e-01
  1.6712e+02   9.81e-02
  1.7348e+02   9.37e-02
  1.8008e+02   8.94e-02
  1.8693e+02   8.52e-02
  1.9404e+02   8.13e-02
  2.0142e+02   7.75e-02
  2.0908e+02   7.38e-02
  2.1704e+02   7.03e-02
  2.2529e+02   6.70e-02
  2.3387e+02   6.37e-02
  2.4276e+02   6.07e-02
  2.5200e+02   5.77e-02
  2.6158e+02   5.49e-02
  2.7154e+02   5.21e-02
  2.8187e+02   4.95e-02
  2.9259e+02   4.70e-02
  3.0372e+02   4.46e-02
  3.1527e+02   4.23e-02
  3.2727e+02   4.01e-02
  3.3972e+02   3.80e-02
  3.5264e+02   3.60e-02
  3.6606e+02   3.41e-02
  3.7998e+02   3.23e-02
  3.9444e+02   3.05e-02
  4.0945e+02   2.88e-02
  4.2502e+02   2.72e-02
  4.4119e+02   2.57e-02
  4.5798e+02   2.43e-02
  4.7540e+02   2.29e-02
  4.9348e+02   2.16e-02
  5.1226e+02   2.03e-02
  5.3175e+02   1.91e-02
  5.5198e+02   1.80e-02
  5.7297e+02   1.69e-02
  5.9477e+02   1.59e-02
  6.1740e+02   1.49e-02
  6.4089e+02   1.40e-02
  6.6527e+02   1.32e-02
  6.9058e+02   1.23e-02
  7.1685e+02   1.16e-02
  7.4412e+02   1.08e-02
  7.7243e+02   1.01e-02
  8.0181e+02   9.49e-03
  8.3232e+02   8.88e-03
  8.6398e+02   8.30e-03
  8.9685e+02   7.76e-03
  9.3097e+02   7.25e-03
  9.6638e+02   6.77e-03
  1.0031e+03   6.32e-03
  1.0413e+03   5.89e-03
  1.0809e+03   5.49e-03
  1.1220e+03   5.12e-03
  1.1647e+03   4.77e-03
  1.2090e+03   4.44e-03
  1.2550e+03   4.13e-03
  1.3028e+03   3.84e-03
  1.3523e+03   3.56e-03
  1.4038e+03   3.30e-03
  1.4572e+03   3.07e-03
  1.5126e+03   2.84e-03
  1.5702e+03   2.63e-03
  1.6299e+03   2.44e-03
  1.6919e+03   2.26e-03
  1.7563e+03   2.09e-03
  1.8231e+03   1.93e-03
  1.8925e+03   1.78e-03
  1.9645e+03   1.64e-03
  2.0392e+03   1.52e-03
  2.1168e+03   1.40e-03
  2.1973e+03   1.29e-03
  2.2809e+03   1.18e-03
  2.3677e+03   1.09e-03
  2.4577e+03   1.00e-03
  2.5512e+03   9.18e-04
  2.6483e+03   8.42e-04
  2.7490e+03   7.71e-04
  2.8536e+03   7.05e-04
  2.9622e+03   6.45e-04
  3.0749e+03   5.89e-04
  3.1918e+03   5.37e-04
  3.3133e+03   4.91e-04
  3.4393e+03   4.47e-04
  3.5702e+03   4.06e-04
  3.7060e+03   3.70e-04
  3.8470e+03   3.36e-04
  3.9933e+03   3.04e-04
  4.1452e+03   2.76e-04
  4.3029e+03   2.50e-04
  4.4666e+03   2.26e-04
  4.6366e+03   2.04e-04
  4.8129e+03   1.84e-04
  4.9960e+03   1.66e-04
  5.1861e+03   1.49e-04
  5.3834e+03   1.34e-04
  5.5882e+03   1.20e-04
  5.8008e+03   1.08e-04
  6.0215e+03   9.67e-05
  6.2506e+03   8.61e-05
  6.4883e+03   7.71e-05
  6.7352e+03   6.88e-05
  6.9914e+03   6.10e-05
  7.2574e+03   5.44e-05
  7.5335e+03   4.83e-05
  7.8201e+03   4.27e-05
  8.1176e+03   3.78e-05
  8.4264e+03   3.35e-05
  8.7470e+03   2.94e-05
  9.0797e+03   2.59e-05
  9.4251e+03   2.28e-05
  9.7837e+03   2.00e-05
  1.0156e+04   1.75e-05
  1.0542e+04   1.53e-05
  1.0943e+04   1.33e-05
  1.1360e+04   1.15e-05
  1.1792e+04   1.01e-05
  1.2240e+04   8.67e-06
  1.2706e+04   7.47e-06
  1.3189e+04   6.45e-06
  1.3691e+04   5.52e-06
  1.4212e+04   4.70e-06
  1.4753e+04   4.03e-06
  1.5314e+04   3.41e-06
  1.5897e+04   2.87e-06
  1.6501e+04   2.43e-06
  1.7129e+04   2.03e-06
  1.7781e+04   1.68e-06
  1.8457e+04   1.40e-06
  1.9159e+04   1.15e-06
  1.9888e+04   9.35e-07
  2.0645e+04   7.64e-07
  2.1430e+04   6.13e-07
  2.2245e+04   4.81e-07
  2.3092e+04   3.81e-07
  2.3970e+04   2.94e-07
  2.4882e+04   2.21e-07
  2.5829e+04   1.67e-07
  2.6811e+04   1.22e-07
  2.7831e+04   8.58e-08
  2.8890e+04   5.99e-08
  2.9989e+04   4.02e-08
  3.1130e+04   2.55e-08
  3.2314e+04   1.57e-08
  3.3544e+04   9.04e-09
  3.4820e+04   4.78e-09
  3.6144e+04   2.33e-09
  3.7519e+04   1.02e-09
  3.8947e+04   3.80e-10
  4.0428e+04   1.20e-10
  4.1966e+04   3.03e-11
  4.3563e+04   5.69e-12
  4.5220e+04   7.37e-13
  4.6941e+04   5.92e-14
  4.8726e+04   2.52e-15
  5.0580e+04   4.73e-17
