#  E [MeV]   Flux [# cm^{-2} s^{-1}  MeV^{-1}]
  3.0000e+04   9.83e-20
  3.0854e+04   9.46e-20
  3.1733e+04   9.10e-20
  3.2636e+04   8.75e-20
  3.3566e+04   8.42e-20
  3.4521e+04   8.10e-20
  3.5504e+04   7.78e-20
  3.6515e+04   7.48e-20
  3.7555e+04   7.19e-20
  3.8625e+04   6.91e-20
  3.9724e+04   6.64e-20
  4.0855e+04   6.38e-20
  4.2019e+04   6.13e-20
  4.3215e+04   5.88e-20
  4.4446e+04   5.65e-20
  4.5711e+04   5.42e-20
  4.7013e+04   5.20e-20
  4.8352e+04   4.99e-20
  4.9728e+04   4.78e-20
  5.1144e+04   4.59e-20
  5.2601e+04   4.40e-20
  5.4099e+04   4.21e-20
  5.5639e+04   4.04e-20
  5.7223e+04   3.87e-20
  5.8853e+04   3.70e-20
  6.0528e+04   3.54e-20
  6.2252e+04   3.39e-20
  6.4025e+04   3.24e-20
  6.5848e+04   3.10e-20
  6.7723e+04   2.97e-20
  6.9651e+04   2.84e-20
  7.1634e+04   2.71e-20
  7.3674e+04   2.59e-20
  7.5772e+04   2.48e-20
  7.7929e+04   2.36e-20
  8.0148e+04   2.26e-20
  8.2431e+04   2.15e-20
  8.4778e+04   2.06e-20
  8.7192e+04   1.96e-20
  8.9674e+04   1.87e-20
  9.2228e+04   1.78e-20
  9.4854e+04   1.70e-20
  9.7555e+04   1.62e-20
  1.0033e+05   1.54e-20
  1.0319e+05   1.47e-20
  1.0613e+05   1.40e-20
  1.0915e+05   1.33e-20
  1.1226e+05   1.27e-20
  1.1545e+05   1.21e-20
  1.1874e+05   1.15e-20
  1.2212e+05   1.09e-20
  1.2560e+05   1.04e-20
  1.2918e+05   9.85e-21
  1.3286e+05   9.35e-21
  1.3664e+05   8.88e-21
  1.4053e+05   8.43e-21
  1.4453e+05   7.99e-21
  1.4865e+05   7.58e-21
  1.5288e+05   7.18e-21
  1.5723e+05   6.81e-21
  1.6171e+05   6.44e-21
  1.6631e+05   6.10e-21
  1.7105e+05   5.77e-21
  1.7592e+05   5.46e-21
  1.8093e+05   5.16e-21
  1.8608e+05   4.87e-21
  1.9138e+05   4.60e-21
  1.9683e+05   4.34e-21
  2.0243e+05   4.09e-21
  2.0820e+05   3.85e-21
  2.1413e+05   3.63e-21
  2.2022e+05   3.41e-21
  2.2649e+05   3.21e-21
  2.3294e+05   3.02e-21
  2.3958e+05   2.83e-21
  2.4640e+05   2.66e-21
  2.5341e+05   2.50e-21
  2.6063e+05   2.34e-21
  2.6805e+05   2.19e-21
  2.7568e+05   2.05e-21
  2.8353e+05   1.92e-21
  2.9161e+05   1.79e-21
  2.9991e+05   1.68e-21
  3.0845e+05   1.57e-21
  3.1723e+05   1.46e-21
  3.2627e+05   1.36e-21
  3.3556e+05   1.26e-21
  3.4511e+05   1.18e-21
  3.5494e+05   1.10e-21
  3.6504e+05   1.02e-21
  3.7544e+05   9.43e-22
  3.8613e+05   8.75e-22
  3.9712e+05   8.11e-22
  4.0843e+05   7.50e-22
  4.2006e+05   6.92e-22
  4.3202e+05   6.40e-22
  4.4432e+05   5.91e-22
  4.5698e+05   5.45e-22
  4.6999e+05   5.01e-22
  4.8337e+05   4.61e-22
  4.9713e+05   4.24e-22
  5.1129e+05   3.90e-22
  5.2585e+05   3.57e-22
  5.4082e+05   3.28e-22
  5.5622e+05   3.01e-22
  5.7206e+05   2.75e-22
  5.8835e+05   2.51e-22
  6.0510e+05   2.30e-22
  6.2233e+05   2.10e-22
  6.4005e+05   1.92e-22
  6.5828e+05   1.74e-22
  6.7702e+05   1.59e-22
  6.9630e+05   1.45e-22
  7.1613e+05   1.32e-22
  7.3652e+05   1.19e-22
  7.5749e+05   1.08e-22
  7.7906e+05   9.86e-23
  8.0124e+05   8.94e-23
  8.2406e+05   8.08e-23
  8.4752e+05   7.30e-23
  8.7165e+05   6.63e-23
  8.9647e+05   5.99e-23
  9.2200e+05   5.41e-23
  9.4825e+05   4.86e-23
  9.7526e+05   4.41e-23
  1.0030e+06   3.98e-23
  1.0316e+06   3.58e-23
  1.0610e+06   3.21e-23
  1.0912e+06   2.91e-23
  1.1222e+06   2.62e-23
  1.1542e+06   2.35e-23
  1.1871e+06   2.10e-23
  1.2209e+06   1.90e-23
  1.2556e+06   1.71e-23
  1.2914e+06   1.54e-23
  1.3281e+06   1.37e-23
  1.3660e+06   1.24e-23
  1.4049e+06   1.11e-23
  1.4449e+06   9.97e-24
  1.4860e+06   8.88e-24
  1.5283e+06   7.98e-24
  1.5718e+06   7.17e-24
  1.6166e+06   6.41e-24
  1.6626e+06   5.70e-24
  1.7100e+06   5.11e-24
  1.7587e+06   4.59e-24
  1.8087e+06   4.10e-24
  1.8602e+06   3.64e-24
  1.9132e+06   3.25e-24
  1.9677e+06   2.92e-24
  2.0237e+06   2.61e-24
  2.0813e+06   2.32e-24
  2.1406e+06   2.06e-24
  2.2016e+06   1.85e-24
  2.2642e+06   1.66e-24
  2.3287e+06   1.47e-24
  2.3950e+06   1.31e-24
  2.4632e+06   1.18e-24
  2.5334e+06   1.05e-24
  2.6055e+06   9.35e-25
  2.6797e+06   8.31e-25
  2.7560e+06   7.49e-25
  2.8345e+06   6.71e-25
  2.9152e+06   5.98e-25
  2.9982e+06   5.31e-25
  3.0836e+06   4.81e-25
  3.1714e+06   4.33e-25
  3.2617e+06   3.88e-25
  3.3545e+06   3.46e-25
  3.4501e+06   3.15e-25
  3.5483e+06   2.85e-25
  3.6493e+06   2.57e-25
  3.7532e+06   2.31e-25
  3.8601e+06   2.11e-25
  3.9700e+06   1.92e-25
  4.0831e+06   1.74e-25
  4.1993e+06   1.57e-25
  4.3189e+06   1.44e-25
  4.4419e+06   1.31e-25
  4.5684e+06   1.19e-25
  4.6985e+06   1.08e-25
  4.8322e+06   9.90e-26
  4.9698e+06   9.06e-26
  5.1114e+06   8.27e-26
  5.2569e+06   7.53e-26
  5.4066e+06   6.87e-26
  5.5605e+06   6.28e-26
  5.7189e+06   5.72e-26
  5.8817e+06   5.19e-26
  6.0492e+06   4.72e-26
  6.2214e+06   4.28e-26
  6.3986e+06   3.87e-26
  6.5808e+06   3.48e-26
  6.7682e+06   3.13e-26
  6.9609e+06   2.79e-26
  7.1591e+06   2.48e-26
  7.3630e+06   2.19e-26
  7.5726e+06   1.95e-26
  7.7882e+06   1.74e-26
  8.0100e+06   1.56e-26
