#  E [MeV]   Flux [# cm^{-2} s^{-1}  MeV^{-1}]
  3.0000e+04   2.57e-20
  3.1123e+04   2.47e-20
  3.2288e+04   2.37e-20
  3.3497e+04   2.27e-20
  3.4751e+04   2.18e-20
  3.6051e+04   2.09e-20
  3.7401e+04   2.01e-20
  3.8801e+04   1.93e-20
  4.0253e+04   1.85e-20
  4.1760e+04   1.77e-20
  4.3324e+04   1.70e-20
  4.4945e+04   1.63e-20
  4.6628e+04   1.57e-20
  4.8373e+04   1.50e-20
  5.0184e+04   1.44e-20
  5.2063e+04   1.38e-20
  5.4011e+04   1.32e-20
  5.6033e+04   1.27e-20
  5.8131e+04   1.22e-20
  6.0307e+04   1.17e-20
  6.2564e+04   1.12e-20
  6.4906e+04   1.07e-20
  6.7336e+04   1.03e-20
  6.9857e+04   9.84e-21
  7.2472e+04   9.42e-21
  7.5184e+04   9.02e-21
  7.7999e+04   8.64e-21
  8.0919e+04   8.27e-21
  8.3948e+04   7.92e-21
  8.7090e+04   7.58e-21
  9.0350e+04   7.25e-21
  9.3732e+04   6.94e-21
  9.7241e+04   6.64e-21
  1.0088e+05   6.35e-21
  1.0466e+05   6.07e-21
  1.0858e+05   5.81e-21
  1.1264e+05   5.55e-21
  1.1686e+05   5.30e-21
  1.2123e+05   5.07e-21
  1.2577e+05   4.84e-21
  1.3048e+05   4.63e-21
  1.3536e+05   4.42e-21
  1.4043e+05   4.22e-21
  1.4568e+05   4.03e-21
  1.5114e+05   3.84e-21
  1.5680e+05   3.66e-21
  1.6266e+05   3.49e-21
  1.6875e+05   3.33e-21
  1.7507e+05   3.17e-21
  1.8162e+05   3.02e-21
  1.8842e+05   2.88e-21
  1.9548e+05   2.74e-21
  2.0279e+05   2.61e-21
  2.1039e+05   2.48e-21
  2.1826e+05   2.36e-21
  2.2643e+05   2.25e-21
  2.3491e+05   2.14e-21
  2.4370e+05   2.03e-21
  2.5282e+05   1.93e-21
  2.6229e+05   1.83e-21
  2.7211e+05   1.74e-21
  2.8229e+05   1.65e-21
  2.9286e+05   1.57e-21
  3.0382e+05   1.49e-21
  3.1519e+05   1.41e-21
  3.2699e+05   1.34e-21
  3.3923e+05   1.26e-21
  3.5193e+05   1.20e-21
  3.6511e+05   1.13e-21
  3.7877e+05   1.07e-21
  3.9295e+05   1.01e-21
  4.0766e+05   9.57e-22
  4.2292e+05   9.04e-22
  4.3875e+05   8.53e-22
  4.5518e+05   8.05e-22
  4.7222e+05   7.60e-22
  4.8989e+05   7.17e-22
  5.0823e+05   6.75e-22
  5.2726e+05   6.36e-22
  5.4699e+05   5.99e-22
  5.6747e+05   5.64e-22
  5.8871e+05   5.30e-22
  6.1075e+05   4.99e-22
  6.3361e+05   4.69e-22
  6.5733e+05   4.40e-22
  6.8194e+05   4.14e-22
  7.0746e+05   3.88e-22
  7.3395e+05   3.64e-22
  7.6142e+05   3.42e-22
  7.8992e+05   3.20e-22
  8.1949e+05   3.00e-22
  8.5017e+05   2.81e-22
  8.8199e+05   2.63e-22
  9.1501e+05   2.46e-22
  9.4926e+05   2.30e-22
  9.8479e+05   2.15e-22
  1.0217e+06   2.01e-22
  1.0599e+06   1.88e-22
  1.0996e+06   1.76e-22
  1.1407e+06   1.64e-22
  1.1834e+06   1.53e-22
  1.2277e+06   1.43e-22
  1.2737e+06   1.33e-22
  1.3214e+06   1.24e-22
  1.3708e+06   1.15e-22
  1.4222e+06   1.07e-22
  1.4754e+06   9.99e-23
  1.5306e+06   9.29e-23
  1.5879e+06   8.63e-23
  1.6474e+06   8.02e-23
  1.7090e+06   7.45e-23
  1.7730e+06   6.91e-23
  1.8394e+06   6.41e-23
  1.9082e+06   5.95e-23
  1.9797e+06   5.50e-23
  2.0538e+06   5.10e-23
  2.1306e+06   4.72e-23
  2.2104e+06   4.37e-23
  2.2931e+06   4.04e-23
  2.3790e+06   3.73e-23
  2.4680e+06   3.44e-23
  2.5604e+06   3.18e-23
  2.6563e+06   2.93e-23
  2.7557e+06   2.70e-23
  2.8589e+06   2.48e-23
  2.9659e+06   2.29e-23
  3.0769e+06   2.10e-23
  3.1921e+06   1.93e-23
  3.3116e+06   1.77e-23
  3.4355e+06   1.63e-23
  3.5641e+06   1.49e-23
  3.6976e+06   1.37e-23
  3.8360e+06   1.25e-23
  3.9796e+06   1.14e-23
  4.1285e+06   1.05e-23
  4.2831e+06   9.56e-24
  4.4434e+06   8.71e-24
  4.6097e+06   7.96e-24
  4.7823e+06   7.24e-24
  4.9613e+06   6.58e-24
  5.1470e+06   5.99e-24
  5.3397e+06   5.44e-24
  5.5396e+06   4.93e-24
  5.7470e+06   4.48e-24
  5.9621e+06   4.06e-24
  6.1853e+06   3.66e-24
  6.4168e+06   3.32e-24
  6.6570e+06   3.00e-24
  6.9062e+06   2.70e-24
  7.1647e+06   2.43e-24
  7.4329e+06   2.20e-24
  7.7112e+06   1.97e-24
  7.9998e+06   1.77e-24
  8.2993e+06   1.59e-24
  8.6100e+06   1.43e-24
  8.9323e+06   1.28e-24
  9.2666e+06   1.14e-24
  9.6135e+06   1.02e-24
  9.9734e+06   9.10e-25
  1.0347e+07   8.15e-25
  1.0734e+07   7.26e-25
  1.1136e+07   6.43e-25
  1.1553e+07   5.74e-25
  1.1985e+07   5.11e-25
  1.2434e+07   4.51e-25
  1.2899e+07   4.02e-25
  1.3382e+07   3.57e-25
  1.3883e+07   3.14e-25
  1.4403e+07   2.79e-25
  1.4942e+07   2.47e-25
  1.5501e+07   2.17e-25
  1.6081e+07   1.92e-25
  1.6683e+07   1.69e-25
  1.7308e+07   1.49e-25
  1.7956e+07   1.31e-25
  1.8628e+07   1.15e-25
  1.9325e+07   1.01e-25
  2.0049e+07   8.79e-26
  2.0799e+07   7.69e-26
  2.1578e+07   6.67e-26
  2.2386e+07   5.75e-26
  2.3224e+07   4.97e-26
  2.4093e+07   4.23e-26
  2.4995e+07   3.56e-26
  2.5930e+07   2.99e-26
  2.6901e+07   2.46e-26
  2.7908e+07   1.97e-26
  2.8953e+07   1.58e-26
  3.0037e+07   1.22e-26
  3.1161e+07   9.07e-27
  3.2327e+07   6.61e-27
  3.3537e+07   4.55e-27
  3.4793e+07   2.90e-27
  3.6095e+07   1.79e-27
  3.7446e+07   1.00e-27
  3.8848e+07   4.81e-28
  4.0302e+07   2.23e-28
  4.1811e+07   8.61e-29
  4.3376e+07   2.38e-29
  4.5000e+07   4.71e-30
