#  E [MeV]   Flux [# cm^{-2} s^{-1}  MeV^{-1}]
  3.0000e+04   1.58e-25
  3.1232e+04   1.51e-25
  3.2514e+04   1.44e-25
  3.3849e+04   1.37e-25
  3.5238e+04   1.31e-25
  3.6685e+04   1.25e-25
  3.8191e+04   1.19e-25
  3.9759e+04   1.13e-25
  4.1391e+04   1.08e-25
  4.3090e+04   1.03e-25
  4.4859e+04   9.78e-26
  4.6701e+04   9.31e-26
  4.8618e+04   8.86e-26
  5.0614e+04   8.43e-26
  5.2692e+04   8.03e-26
  5.4855e+04   7.64e-26
  5.7107e+04   7.26e-26
  5.9451e+04   6.91e-26
  6.1892e+04   6.57e-26
  6.4433e+04   6.24e-26
  6.7078e+04   5.93e-26
  6.9832e+04   5.64e-26
  7.2699e+04   5.36e-26
  7.5683e+04   5.09e-26
  7.8790e+04   4.83e-26
  8.2025e+04   4.59e-26
  8.5392e+04   4.35e-26
  8.8898e+04   4.13e-26
  9.2547e+04   3.92e-26
  9.6347e+04   3.72e-26
  1.0030e+05   3.52e-26
  1.0442e+05   3.34e-26
  1.0871e+05   3.17e-26
  1.1317e+05   3.00e-26
  1.1782e+05   2.84e-26
  1.2265e+05   2.69e-26
  1.2769e+05   2.55e-26
  1.3293e+05   2.41e-26
  1.3839e+05   2.28e-26
  1.4407e+05   2.15e-26
  1.4998e+05   2.04e-26
  1.5614e+05   1.92e-26
  1.6255e+05   1.82e-26
  1.6922e+05   1.71e-26
  1.7617e+05   1.62e-26
  1.8340e+05   1.52e-26
  1.9093e+05   1.44e-26
  1.9877e+05   1.35e-26
  2.0693e+05   1.27e-26
  2.1543e+05   1.20e-26
  2.2427e+05   1.13e-26
  2.3348e+05   1.06e-26
  2.4306e+05   9.94e-27
  2.5304e+05   9.33e-27
  2.6343e+05   8.75e-27
  2.7424e+05   8.20e-27
  2.8550e+05   7.67e-27
  2.9722e+05   7.17e-27
  3.0942e+05   6.70e-27
  3.2213e+05   6.26e-27
  3.3535e+05   5.84e-27
  3.4912e+05   5.44e-27
  3.6345e+05   5.07e-27
  3.7837e+05   4.71e-27
  3.9390e+05   4.38e-27
  4.1008e+05   4.07e-27
  4.2691e+05   3.77e-27
  4.4444e+05   3.49e-27
  4.6268e+05   3.23e-27
  4.8168e+05   2.99e-27
  5.0145e+05   2.76e-27
  5.2204e+05   2.55e-27
  5.4347e+05   2.35e-27
  5.6578e+05   2.16e-27
  5.8901e+05   1.99e-27
  6.1319e+05   1.83e-27
  6.3836e+05   1.68e-27
  6.6457e+05   1.55e-27
  6.9185e+05   1.42e-27
  7.2025e+05   1.30e-27
  7.4982e+05   1.19e-27
  7.8061e+05   1.09e-27
  8.1265e+05   1.00e-27
  8.4601e+05   9.15e-28
  8.8075e+05   8.37e-28
  9.1690e+05   7.66e-28
  9.5455e+05   7.00e-28
  9.9373e+05   6.41e-28
  1.0345e+06   5.86e-28
  1.0770e+06   5.36e-28
  1.1212e+06   4.90e-28
  1.1672e+06   4.48e-28
  1.2152e+06   4.09e-28
  1.2650e+06   3.74e-28
  1.3170e+06   3.42e-28
  1.3711e+06   3.13e-28
  1.4273e+06   2.86e-28
  1.4859e+06   2.62e-28
  1.5469e+06   2.40e-28
  1.6104e+06   2.19e-28
  1.6766e+06   2.00e-28
  1.7454e+06   1.83e-28
  1.8170e+06   1.67e-28
  1.8916e+06   1.53e-28
  1.9693e+06   1.40e-28
  2.0501e+06   1.28e-28
  2.1343e+06   1.16e-28
  2.2219e+06   1.06e-28
  2.3131e+06   9.66e-29
  2.4081e+06   8.80e-29
  2.5070e+06   8.00e-29
  2.6099e+06   7.27e-29
  2.7170e+06   6.60e-29
  2.8286e+06   5.99e-29
  2.9447e+06   5.42e-29
  3.0656e+06   4.90e-29
  3.1914e+06   4.43e-29
  3.3225e+06   3.99e-29
  3.4589e+06   3.59e-29
  3.6008e+06   3.23e-29
  3.7487e+06   2.89e-29
  3.9026e+06   2.59e-29
  4.0628e+06   2.31e-29
  4.2296e+06   2.05e-29
  4.4032e+06   1.83e-29
  4.5840e+06   1.62e-29
  4.7722e+06   1.42e-29
  4.9681e+06   1.25e-29
  5.1720e+06   1.10e-29
  5.3844e+06   9.60e-30
  5.6054e+06   8.37e-30
  5.8355e+06   7.24e-30
  6.0751e+06   6.26e-30
  6.3245e+06   5.39e-30
  6.5841e+06   4.60e-30
  6.8544e+06   3.92e-30
  7.1358e+06   3.32e-30
  7.4288e+06   2.78e-30
  7.7338e+06   2.33e-30
  8.0513e+06   1.94e-30
  8.3818e+06   1.59e-30
  8.7259e+06   1.30e-30
  9.0841e+06   1.06e-30
  9.4571e+06   8.43e-31
  9.8453e+06   6.73e-31
  1.0249e+07   5.27e-31
  1.0670e+07   4.08e-31
  1.1108e+07   3.13e-31
  1.1564e+07   2.36e-31
  1.2039e+07   1.74e-31
  1.2533e+07   1.28e-31
  1.3048e+07   9.07e-32
  1.3584e+07   6.33e-32
  1.4141e+07   4.32e-32
  1.4722e+07   2.85e-32
  1.5326e+07   1.83e-32
  1.5955e+07   1.13e-32
  1.6610e+07   6.69e-33
  1.7292e+07   3.81e-33
  1.8002e+07   2.06e-33
  1.8741e+07   1.03e-33
  1.9511e+07   4.94e-34
  2.0312e+07   2.16e-34
  2.1145e+07   8.58e-35
  2.2013e+07   3.11e-35
  2.2917e+07   9.88e-36
  2.3858e+07   2.70e-36
  2.4837e+07   6.29e-37
  2.5857e+07   1.18e-37
  2.6919e+07   1.75e-38
  2.8024e+07   1.95e-39
  2.9174e+07   1.52e-40
  3.0372e+07   7.81e-42
  3.1619e+07   2.41e-43
  3.2917e+07   3.93e-45
  3.4268e+07   2.98e-47
  3.5675e+07   8.65e-50
  3.7140e+07   7.48e-53
  3.8664e+07   1.44e-56
  4.0252e+07   4.06e-61
  4.1904e+07   9.74e-67
  4.3624e+07   4.49e-72
  4.5415e+07   4.05e-72
  4.7280e+07   3.64e-72
  4.9221e+07   3.31e-72
  5.1241e+07   3.01e-72
  5.3345e+07   2.73e-72
  5.5535e+07   2.49e-72
  5.7815e+07   2.27e-72
  6.0188e+07   2.07e-72
  6.2659e+07   1.90e-72
  6.5232e+07   1.74e-72
  6.7910e+07   1.59e-72
  7.0698e+07   1.45e-72
  7.3600e+07   1.31e-72
  7.6621e+07   1.18e-72
  7.9767e+07   1.06e-72
  8.3042e+07   9.39e-73
  8.6451e+07   8.48e-73
  9.0000e+07   7.69e-73
