#  E [MeV]   Flux [# cm^{-2} s^{-1}  MeV^{-1}]
  3.0000e+04   2.80e-19
  3.0589e+04   2.71e-19
  3.1190e+04   2.62e-19
  3.1803e+04   2.54e-19
  3.2428e+04   2.46e-19
  3.3065e+04   2.38e-19
  3.3714e+04   2.30e-19
  3.4376e+04   2.23e-19
  3.5052e+04   2.15e-19
  3.5740e+04   2.08e-19
  3.6442e+04   2.01e-19
  3.7158e+04   1.95e-19
  3.7888e+04   1.88e-19
  3.8632e+04   1.82e-19
  3.9391e+04   1.76e-19
  4.0165e+04   1.70e-19
  4.0954e+04   1.64e-19
  4.1758e+04   1.58e-19
  4.2579e+04   1.53e-19
  4.3415e+04   1.48e-19
  4.4268e+04   1.43e-19
  4.5138e+04   1.38e-19
  4.6024e+04   1.33e-19
  4.6928e+04   1.28e-19
  4.7850e+04   1.24e-19
  4.8790e+04   1.19e-19
  4.9749e+04   1.15e-19
  5.0726e+04   1.11e-19
  5.1722e+04   1.07e-19
  5.2738e+04   1.03e-19
  5.3774e+04   9.93e-20
  5.4831e+04   9.57e-20
  5.5908e+04   9.22e-20
  5.7006e+04   8.88e-20
  5.8126e+04   8.55e-20
  5.9268e+04   8.24e-20
  6.0432e+04   7.93e-20
  6.1619e+04   7.63e-20
  6.2829e+04   7.34e-20
  6.4064e+04   7.07e-20
  6.5322e+04   6.80e-20
  6.6605e+04   6.54e-20
  6.7913e+04   6.29e-20
  6.9248e+04   6.04e-20
  7.0608e+04   5.81e-20
  7.1995e+04   5.58e-20
  7.3409e+04   5.36e-20
  7.4851e+04   5.15e-20
  7.6321e+04   4.94e-20
  7.7821e+04   4.74e-20
  7.9349e+04   4.56e-20
  8.0908e+04   4.37e-20
  8.2497e+04   4.20e-20
  8.4118e+04   4.03e-20
  8.5770e+04   3.86e-20
  8.7455e+04   3.70e-20
  8.9173e+04   3.55e-20
  9.0925e+04   3.40e-20
  9.2711e+04   3.26e-20
  9.4532e+04   3.12e-20
  9.6389e+04   2.99e-20
  9.8283e+04   2.86e-20
  1.0021e+05   2.74e-20
  1.0218e+05   2.62e-20
  1.0419e+05   2.51e-20
  1.0624e+05   2.40e-20
  1.0832e+05   2.29e-20
  1.1045e+05   2.19e-20
  1.1262e+05   2.10e-20
  1.1483e+05   2.01e-20
  1.1709e+05   1.92e-20
  1.1939e+05   1.83e-20
  1.2173e+05   1.75e-20
  1.2412e+05   1.67e-20
  1.2656e+05   1.59e-20
  1.2905e+05   1.52e-20
  1.3158e+05   1.45e-20
  1.3417e+05   1.38e-20
  1.3680e+05   1.32e-20
  1.3949e+05   1.26e-20
  1.4223e+05   1.20e-20
  1.4503e+05   1.14e-20
  1.4787e+05   1.09e-20
  1.5078e+05   1.03e-20
  1.5374e+05   9.81e-21
  1.5676e+05   9.33e-21
  1.5984e+05   8.88e-21
  1.6298e+05   8.45e-21
  1.6618e+05   8.03e-21
  1.6945e+05   7.62e-21
  1.7278e+05   7.23e-21
  1.7617e+05   6.86e-21
  1.7963e+05   6.52e-21
  1.8316e+05   6.19e-21
  1.8676e+05   5.87e-21
  1.9042e+05   5.56e-21
  1.9417e+05   5.26e-21
  1.9798e+05   4.99e-21
  2.0187e+05   4.73e-21
  2.0583e+05   4.48e-21
  2.0988e+05   4.24e-21
  2.1400e+05   4.01e-21
  2.1820e+05   3.78e-21
  2.2249e+05   3.58e-21
  2.2686e+05   3.38e-21
  2.3132e+05   3.20e-21
  2.3586e+05   3.02e-21
  2.4049e+05   2.85e-21
  2.4522e+05   2.68e-21
  2.5004e+05   2.53e-21
  2.5495e+05   2.39e-21
  2.5996e+05   2.25e-21
  2.6506e+05   2.12e-21
  2.7027e+05   1.99e-21
  2.7558e+05   1.87e-21
  2.8099e+05   1.76e-21
  2.8651e+05   1.65e-21
  2.9214e+05   1.55e-21
  2.9788e+05   1.46e-21
  3.0373e+05   1.36e-21
  3.0970e+05   1.27e-21
  3.1578e+05   1.20e-21
  3.2198e+05   1.12e-21
  3.2831e+05   1.05e-21
  3.3476e+05   9.84e-22
  3.4133e+05   9.17e-22
  3.4804e+05   8.54e-22
  3.5487e+05   8.00e-22
  3.6185e+05   7.49e-22
  3.6895e+05   6.99e-22
  3.7620e+05   6.51e-22
  3.8359e+05   6.05e-22
  3.9113e+05   5.61e-22
  3.9881e+05   5.24e-22
  4.0664e+05   4.88e-22
  4.1463e+05   4.54e-22
  4.2278e+05   4.21e-22
  4.3108e+05   3.89e-22
  4.3955e+05   3.60e-22
  4.4818e+05   3.35e-22
  4.5699e+05   3.11e-22
  4.6596e+05   2.88e-22
  4.7512e+05   2.66e-22
  4.8445e+05   2.45e-22
  4.9397e+05   2.25e-22
  5.0367e+05   2.09e-22
  5.1356e+05   1.93e-22
  5.2365e+05   1.78e-22
  5.3394e+05   1.64e-22
  5.4443e+05   1.50e-22
  5.5512e+05   1.38e-22
  5.6603e+05   1.27e-22
  5.7715e+05   1.17e-22
  5.8848e+05   1.07e-22
  6.0004e+05   9.79e-23
  6.1183e+05   8.89e-23
  6.2385e+05   8.12e-23
  6.3610e+05   7.46e-23
  6.4860e+05   6.84e-23
  6.6134e+05   6.24e-23
  6.7433e+05   5.66e-23
  6.8758e+05   5.11e-23
  7.0108e+05   4.65e-23
  7.1486e+05   4.26e-23
  7.2890e+05   3.88e-23
  7.4322e+05   3.52e-23
  7.5782e+05   3.18e-23
  7.7270e+05   2.85e-23
  7.8788e+05   2.58e-23
  8.0336e+05   2.36e-23
  8.1914e+05   2.14e-23
  8.3523e+05   1.93e-23
  8.5164e+05   1.73e-23
  8.6837e+05   1.54e-23
  8.8542e+05   1.40e-23
  9.0282e+05   1.27e-23
  9.2055e+05   1.15e-23
  9.3863e+05   1.03e-23
  9.5707e+05   9.18e-24
  9.7587e+05   8.10e-24
  9.9504e+05   7.32e-24
  1.0146e+06   6.62e-24
  1.0345e+06   5.95e-24
  1.0548e+06   5.31e-24
  1.0756e+06   4.70e-24
  1.0967e+06   4.11e-24
  1.1182e+06   3.70e-24
  1.1402e+06   3.32e-24
  1.1626e+06   2.96e-24
  1.1854e+06   2.61e-24
  1.2087e+06   2.28e-24
  1.2325e+06   1.96e-24
  1.2567e+06   1.75e-24
  1.2814e+06   1.55e-24
  1.3065e+06   1.36e-24
  1.3322e+06   1.17e-24
  1.3584e+06   9.98e-25
  1.3851e+06   8.34e-25
  1.4123e+06   7.51e-25
  1.4400e+06   6.71e-25
