#  E [MeV]   Flux [# cm^{-2} s^{-1}  MeV^{-1}]
  3.0000e+04   8.87e-20
  3.1033e+04   8.50e-20
  3.2102e+04   8.14e-20
  3.3207e+04   7.80e-20
  3.4350e+04   7.47e-20
  3.5533e+04   7.15e-20
  3.6757e+04   6.85e-20
  3.8022e+04   6.56e-20
  3.9332e+04   6.28e-20
  4.0686e+04   6.01e-20
  4.2087e+04   5.75e-20
  4.3536e+04   5.50e-20
  4.5035e+04   5.26e-20
  4.6586e+04   5.03e-20
  4.8190e+04   4.81e-20
  4.9850e+04   4.60e-20
  5.1566e+04   4.40e-20
  5.3342e+04   4.21e-20
  5.5178e+04   4.02e-20
  5.7078e+04   3.84e-20
  5.9044e+04   3.67e-20
  6.1077e+04   3.51e-20
  6.3180e+04   3.35e-20
  6.5356e+04   3.20e-20
  6.7606e+04   3.06e-20
  6.9934e+04   2.92e-20
  7.2342e+04   2.79e-20
  7.4833e+04   2.66e-20
  7.7410e+04   2.54e-20
  8.0075e+04   2.43e-20
  8.2833e+04   2.32e-20
  8.5685e+04   2.21e-20
  8.8635e+04   2.11e-20
  9.1687e+04   2.01e-20
  9.4844e+04   1.92e-20
  9.8110e+04   1.83e-20
  1.0149e+05   1.74e-20
  1.0498e+05   1.66e-20
  1.0860e+05   1.58e-20
  1.1234e+05   1.51e-20
  1.1621e+05   1.44e-20
  1.2021e+05   1.37e-20
  1.2435e+05   1.30e-20
  1.2863e+05   1.24e-20
  1.3306e+05   1.18e-20
  1.3764e+05   1.12e-20
  1.4238e+05   1.07e-20
  1.4728e+05   1.02e-20
  1.5235e+05   9.67e-21
  1.5760e+05   9.19e-21
  1.6302e+05   8.73e-21
  1.6864e+05   8.29e-21
  1.7445e+05   7.87e-21
  1.8045e+05   7.47e-21
  1.8667e+05   7.08e-21
  1.9309e+05   6.71e-21
  1.9974e+05   6.36e-21
  2.0662e+05   6.02e-21
  2.1373e+05   5.70e-21
  2.2109e+05   5.39e-21
  2.2871e+05   5.09e-21
  2.3658e+05   4.81e-21
  2.4473e+05   4.54e-21
  2.5316e+05   4.28e-21
  2.6187e+05   4.04e-21
  2.7089e+05   3.80e-21
  2.8022e+05   3.58e-21
  2.8987e+05   3.36e-21
  2.9985e+05   3.16e-21
  3.1017e+05   2.96e-21
  3.2085e+05   2.78e-21
  3.3190e+05   2.60e-21
  3.4333e+05   2.43e-21
  3.5515e+05   2.27e-21
  3.6738e+05   2.12e-21
  3.8003e+05   1.98e-21
  3.9312e+05   1.85e-21
  4.0665e+05   1.72e-21
  4.2066e+05   1.61e-21
  4.3514e+05   1.50e-21
  4.5013e+05   1.39e-21
  4.6562e+05   1.29e-21
  4.8166e+05   1.20e-21
  4.9824e+05   1.12e-21
  5.1540e+05   1.04e-21
  5.3315e+05   9.61e-22
  5.5150e+05   8.91e-22
  5.7050e+05   8.25e-22
  5.9014e+05   7.62e-22
  6.1046e+05   7.05e-22
  6.3148e+05   6.51e-22
  6.5322e+05   6.00e-22
  6.7572e+05   5.53e-22
  6.9898e+05   5.10e-22
  7.2305e+05   4.69e-22
  7.4795e+05   4.31e-22
  7.7371e+05   3.97e-22
  8.0035e+05   3.65e-22
  8.2791e+05   3.35e-22
  8.5641e+05   3.07e-22
  8.8590e+05   2.82e-22
  9.1641e+05   2.59e-22
  9.4796e+05   2.37e-22
  9.8061e+05   2.17e-22
  1.0144e+06   1.99e-22
  1.0493e+06   1.82e-22
  1.0854e+06   1.67e-22
  1.1228e+06   1.52e-22
  1.1615e+06   1.39e-22
  1.2015e+06   1.27e-22
  1.2428e+06   1.16e-22
  1.2856e+06   1.06e-22
  1.3299e+06   9.66e-23
  1.3757e+06   8.82e-23
  1.4231e+06   8.04e-23
  1.4721e+06   7.31e-23
  1.5228e+06   6.66e-23
  1.5752e+06   6.06e-23
  1.6294e+06   5.51e-23
  1.6855e+06   5.00e-23
  1.7436e+06   4.54e-23
  1.8036e+06   4.12e-23
  1.8657e+06   3.73e-23
  1.9300e+06   3.38e-23
  1.9964e+06   3.06e-23
  2.0652e+06   2.76e-23
  2.1363e+06   2.49e-23
  2.2098e+06   2.25e-23
  2.2859e+06   2.03e-23
  2.3646e+06   1.82e-23
  2.4461e+06   1.64e-23
  2.5303e+06   1.47e-23
  2.6174e+06   1.31e-23
  2.7075e+06   1.18e-23
  2.8008e+06   1.05e-23
  2.8972e+06   9.36e-24
  2.9970e+06   8.31e-24
  3.1002e+06   7.41e-24
  3.2069e+06   6.57e-24
  3.3173e+06   5.79e-24
  3.4316e+06   5.13e-24
  3.5497e+06   4.54e-24
  3.6720e+06   3.98e-24
  3.7984e+06   3.49e-24
  3.9292e+06   3.07e-24
  4.0645e+06   2.68e-24
  4.2044e+06   2.32e-24
  4.3492e+06   2.04e-24
  4.4990e+06   1.77e-24
  4.6539e+06   1.52e-24
  4.8141e+06   1.32e-24
  4.9799e+06   1.14e-24
  5.1514e+06   9.72e-25
  5.3288e+06   8.26e-25
  5.5123e+06   7.10e-25
  5.7021e+06   6.04e-25
  5.8984e+06   5.06e-25
  6.1015e+06   4.30e-25
  6.3116e+06   3.63e-25
  6.5289e+06   3.03e-25
  6.7538e+06   2.52e-25
  6.9863e+06   2.12e-25
  7.2269e+06   1.75e-25
  7.4757e+06   1.42e-25
  7.7331e+06   1.18e-25
  7.9994e+06   9.71e-26
  8.2749e+06   7.83e-26
  8.5598e+06   6.35e-26
  8.8546e+06   5.16e-26
  9.1594e+06   4.11e-26
  9.4748e+06   3.24e-26
  9.8011e+06   2.60e-26
  1.0139e+07   2.05e-26
  1.0488e+07   1.58e-26
  1.0849e+07   1.24e-26
  1.1222e+07   9.63e-27
  1.1609e+07   7.33e-27
  1.2009e+07   5.54e-27
  1.2422e+07   4.22e-27
  1.2850e+07   3.15e-27
  1.3292e+07   2.29e-27
  1.3750e+07   1.69e-27
  1.4223e+07   1.22e-27
  1.4713e+07   8.56e-28
  1.5220e+07   5.98e-28
  1.5744e+07   4.12e-28
  1.6286e+07   2.76e-28
  1.6847e+07   1.79e-28
  1.7427e+07   1.14e-28
  1.8027e+07   6.99e-29
  1.8648e+07   4.10e-29
  1.9290e+07   2.31e-29
  1.9954e+07   1.23e-29
  2.0641e+07   6.20e-30
  2.1352e+07   2.91e-30
  2.2087e+07   1.26e-30
  2.2848e+07   4.98e-31
  2.3634e+07   1.77e-31
  2.4448e+07   5.77e-32
  2.5290e+07   1.64e-32
