#  E [MeV]   Flux [# cm^{-2} s^{-1}  MeV^{-1}]
  3.0000e+04   1.10e-25
  3.1141e+04   1.05e-25
  3.2326e+04   1.01e-25
  3.3556e+04   9.72e-26
  3.4832e+04   9.33e-26
  3.6157e+04   8.96e-26
  3.7533e+04   8.60e-26
  3.8961e+04   8.25e-26
  4.0443e+04   7.92e-26
  4.1982e+04   7.60e-26
  4.3579e+04   7.29e-26
  4.5237e+04   6.99e-26
  4.6958e+04   6.71e-26
  4.8744e+04   6.43e-26
  5.0598e+04   6.17e-26
  5.2523e+04   5.92e-26
  5.4521e+04   5.67e-26
  5.6596e+04   5.44e-26
  5.8749e+04   5.21e-26
  6.0984e+04   5.00e-26
  6.3304e+04   4.79e-26
  6.5712e+04   4.59e-26
  6.8212e+04   4.40e-26
  7.0807e+04   4.21e-26
  7.3500e+04   4.03e-26
  7.6297e+04   3.86e-26
  7.9199e+04   3.70e-26
  8.2212e+04   3.54e-26
  8.5340e+04   3.39e-26
  8.8586e+04   3.24e-26
  9.1956e+04   3.10e-26
  9.5455e+04   2.96e-26
  9.9086e+04   2.83e-26
  1.0286e+05   2.71e-26
  1.0677e+05   2.59e-26
  1.1083e+05   2.47e-26
  1.1505e+05   2.36e-26
  1.1942e+05   2.25e-26
  1.2397e+05   2.15e-26
  1.2868e+05   2.05e-26
  1.3358e+05   1.96e-26
  1.3866e+05   1.87e-26
  1.4394e+05   1.78e-26
  1.4941e+05   1.69e-26
  1.5509e+05   1.61e-26
  1.6100e+05   1.53e-26
  1.6712e+05   1.46e-26
  1.7348e+05   1.39e-26
  1.8008e+05   1.32e-26
  1.8693e+05   1.25e-26
  1.9404e+05   1.19e-26
  2.0142e+05   1.13e-26
  2.0908e+05   1.07e-26
  2.1704e+05   1.01e-26
  2.2529e+05   9.56e-27
  2.3387e+05   9.04e-27
  2.4276e+05   8.54e-27
  2.5200e+05   8.07e-27
  2.6158e+05   7.61e-27
  2.7154e+05   7.17e-27
  2.8187e+05   6.76e-27
  2.9259e+05   6.36e-27
  3.0372e+05   5.98e-27
  3.1527e+05   5.61e-27
  3.2727e+05   5.26e-27
  3.3972e+05   4.93e-27
  3.5264e+05   4.62e-27
  3.6606e+05   4.32e-27
  3.7998e+05   4.03e-27
  3.9444e+05   3.76e-27
  4.0945e+05   3.51e-27
  4.2502e+05   3.27e-27
  4.4119e+05   3.04e-27
  4.5798e+05   2.83e-27
  4.7540e+05   2.62e-27
  4.9348e+05   2.43e-27
  5.1226e+05   2.25e-27
  5.3175e+05   2.09e-27
  5.5198e+05   1.93e-27
  5.7297e+05   1.78e-27
  5.9477e+05   1.65e-27
  6.1740e+05   1.52e-27
  6.4089e+05   1.40e-27
  6.6527e+05   1.29e-27
  6.9058e+05   1.19e-27
  7.1685e+05   1.09e-27
  7.4412e+05   1.00e-27
  7.7243e+05   9.23e-28
  8.0181e+05   8.48e-28
  8.3232e+05   7.78e-28
  8.6398e+05   7.15e-28
  8.9685e+05   6.56e-28
  9.3097e+05   6.02e-28
  9.6638e+05   5.53e-28
  1.0031e+06   5.07e-28
  1.0413e+06   4.65e-28
  1.0809e+06   4.27e-28
  1.1220e+06   3.92e-28
  1.1647e+06   3.59e-28
  1.2090e+06   3.30e-28
  1.2550e+06   3.02e-28
  1.3028e+06   2.77e-28
  1.3523e+06   2.54e-28
  1.4038e+06   2.34e-28
  1.4572e+06   2.14e-28
  1.5126e+06   1.97e-28
  1.5702e+06   1.80e-28
  1.6299e+06   1.65e-28
  1.6919e+06   1.52e-28
  1.7563e+06   1.39e-28
  1.8231e+06   1.28e-28
  1.8925e+06   1.17e-28
  1.9645e+06   1.07e-28
  2.0392e+06   9.84e-29
  2.1168e+06   9.01e-29
  2.1973e+06   8.26e-29
  2.2809e+06   7.56e-29
  2.3677e+06   6.91e-29
  2.4577e+06   6.32e-29
  2.5512e+06   5.77e-29
  2.6483e+06   5.26e-29
  2.7490e+06   4.80e-29
  2.8536e+06   4.37e-29
  2.9622e+06   3.97e-29
  3.0749e+06   3.61e-29
  3.1918e+06   3.28e-29
  3.3133e+06   2.96e-29
  3.4393e+06   2.69e-29
  3.5702e+06   2.43e-29
  3.7060e+06   2.18e-29
  3.8470e+06   1.97e-29
  3.9933e+06   1.77e-29
  4.1452e+06   1.58e-29
  4.3029e+06   1.42e-29
  4.4666e+06   1.26e-29
  4.6366e+06   1.12e-29
  4.8129e+06   9.98e-30
  4.9960e+06   8.83e-30
  5.1861e+06   7.77e-30
  5.3834e+06   6.83e-30
  5.5882e+06   5.99e-30
  5.8008e+06   5.21e-30
  6.0215e+06   4.53e-30
  6.2506e+06   3.92e-30
  6.4883e+06   3.37e-30
  6.7352e+06   2.89e-30
  6.9914e+06   2.47e-30
  7.2574e+06   2.09e-30
  7.5335e+06   1.76e-30
  7.8201e+06   1.47e-30
  8.1176e+06   1.22e-30
  8.4264e+06   1.01e-30
  8.7470e+06   8.25e-31
  9.0797e+06   6.68e-31
  9.4251e+06   5.35e-31
  9.7837e+06   4.26e-31
  1.0156e+07   3.34e-31
  1.0542e+07   2.58e-31
  1.0943e+07   1.98e-31
  1.1360e+07   1.49e-31
  1.1792e+07   1.10e-31
  1.2240e+07   8.03e-32
  1.2706e+07   5.72e-32
  1.3189e+07   3.96e-32
  1.3691e+07   2.72e-32
  1.4212e+07   1.80e-32
  1.4753e+07   1.15e-32
  1.5314e+07   7.22e-33
  1.5897e+07   4.34e-33
  1.6501e+07   2.47e-33
  1.7129e+07   1.37e-33
  1.7781e+07   7.15e-34
  1.8457e+07   3.48e-34
  1.9159e+07   1.60e-34
  1.9888e+07   6.83e-35
  2.0645e+07   2.63e-35
  2.1430e+07   9.28e-36
  2.2245e+07   2.92e-36
  2.3092e+07   7.95e-37
  2.3970e+07   1.87e-37
  2.4882e+07   3.72e-38
  2.5829e+07   5.89e-39
  2.6811e+07   7.38e-40
  2.7831e+07   7.02e-41
  2.8890e+07   4.67e-42
  2.9989e+07   2.09e-43
  3.1130e+07   5.86e-45
  3.2314e+07   9.08e-47
  3.3544e+07   6.99e-49
  3.4820e+07   2.35e-51
  3.6144e+07   2.78e-54
  3.7519e+07   9.22e-58
  3.8947e+07   6.62e-62
  4.0428e+07   6.71e-67
  4.1966e+07   1.28e-72
  4.3563e+07   1.03e-72
  4.5220e+07   8.04e-73
  4.6941e+07   5.97e-73
  4.8726e+07   4.55e-73
  5.0580e+07   3.22e-73
