#  E [MeV]   Flux [# cm^{-2} s^{-1}  MeV^{-1}]
  3.0000e+04   6.43e-22
  3.0607e+04   6.23e-22
  3.1227e+04   6.04e-22
  3.1859e+04   5.85e-22
  3.2504e+04   5.66e-22
  3.3163e+04   5.48e-22
  3.3834e+04   5.31e-22
  3.4519e+04   5.14e-22
  3.5218e+04   4.97e-22
  3.5931e+04   4.81e-22
  3.6659e+04   4.66e-22
  3.7401e+04   4.51e-22
  3.8158e+04   4.36e-22
  3.8931e+04   4.22e-22
  3.9719e+04   4.08e-22
  4.0523e+04   3.94e-22
  4.1344e+04   3.81e-22
  4.2181e+04   3.68e-22
  4.3035e+04   3.56e-22
  4.3906e+04   3.44e-22
  4.4795e+04   3.32e-22
  4.5702e+04   3.21e-22
  4.6628e+04   3.10e-22
  4.7572e+04   2.99e-22
  4.8535e+04   2.89e-22
  4.9517e+04   2.79e-22
  5.0520e+04   2.69e-22
  5.1543e+04   2.60e-22
  5.2587e+04   2.51e-22
  5.3651e+04   2.42e-22
  5.4738e+04   2.33e-22
  5.5846e+04   2.25e-22
  5.6977e+04   2.17e-22
  5.8130e+04   2.09e-22
  5.9307e+04   2.02e-22
  6.0508e+04   1.94e-22
  6.1733e+04   1.87e-22
  6.2983e+04   1.80e-22
  6.4258e+04   1.74e-22
  6.5559e+04   1.67e-22
  6.6887e+04   1.61e-22
  6.8241e+04   1.55e-22
  6.9623e+04   1.49e-22
  7.1033e+04   1.44e-22
  7.2471e+04   1.38e-22
  7.3938e+04   1.33e-22
  7.5435e+04   1.28e-22
  7.6963e+04   1.23e-22
  7.8521e+04   1.18e-22
  8.0111e+04   1.14e-22
  8.1733e+04   1.09e-22
  8.3388e+04   1.05e-22
  8.5076e+04   1.01e-22
  8.6799e+04   9.71e-23
  8.8556e+04   9.32e-23
  9.0349e+04   8.95e-23
  9.2178e+04   8.60e-23
  9.4045e+04   8.26e-23
  9.5949e+04   7.92e-23
  9.7892e+04   7.60e-23
  9.9874e+04   7.29e-23
  1.0190e+05   6.99e-23
  1.0396e+05   6.71e-23
  1.0606e+05   6.43e-23
  1.0821e+05   6.16e-23
  1.1040e+05   5.91e-23
  1.1264e+05   5.65e-23
  1.1492e+05   5.42e-23
  1.1725e+05   5.19e-23
  1.1962e+05   4.97e-23
  1.2204e+05   4.76e-23
  1.2451e+05   4.55e-23
  1.2703e+05   4.36e-23
  1.2961e+05   4.17e-23
  1.3223e+05   3.99e-23
  1.3491e+05   3.82e-23
  1.3764e+05   3.65e-23
  1.4043e+05   3.48e-23
  1.4327e+05   3.33e-23
  1.4617e+05   3.18e-23
  1.4913e+05   3.04e-23
  1.5215e+05   2.90e-23
  1.5523e+05   2.77e-23
  1.5837e+05   2.64e-23
  1.6158e+05   2.52e-23
  1.6485e+05   2.40e-23
  1.6819e+05   2.29e-23
  1.7159e+05   2.18e-23
  1.7507e+05   2.08e-23
  1.7861e+05   1.98e-23
  1.8223e+05   1.89e-23
  1.8592e+05   1.80e-23
  1.8968e+05   1.71e-23
  1.9352e+05   1.63e-23
  1.9744e+05   1.54e-23
  2.0144e+05   1.47e-23
  2.0552e+05   1.40e-23
  2.0968e+05   1.33e-23
  2.1392e+05   1.26e-23
  2.1826e+05   1.20e-23
  2.2267e+05   1.14e-23
  2.2718e+05   1.08e-23
  2.3178e+05   1.02e-23
  2.3648e+05   9.72e-24
  2.4126e+05   9.21e-24
  2.4615e+05   8.73e-24
  2.5113e+05   8.25e-24
  2.5622e+05   7.83e-24
  2.6141e+05   7.42e-24
  2.6670e+05   7.03e-24
  2.7210e+05   6.65e-24
  2.7761e+05   6.28e-24
  2.8323e+05   5.93e-24
  2.8896e+05   5.62e-24
  2.9481e+05   5.31e-24
  3.0078e+05   5.02e-24
  3.0687e+05   4.74e-24
  3.1309e+05   4.46e-24
  3.1943e+05   4.21e-24
  3.2589e+05   3.98e-24
  3.3249e+05   3.75e-24
  3.3922e+05   3.54e-24
  3.4609e+05   3.33e-24
  3.5310e+05   3.12e-24
  3.6025e+05   2.94e-24
  3.6754e+05   2.77e-24
  3.7498e+05   2.61e-24
  3.8258e+05   2.45e-24
  3.9032e+05   2.30e-24
  3.9823e+05   2.16e-24
  4.0629e+05   2.03e-24
  4.1452e+05   1.91e-24
  4.2291e+05   1.80e-24
  4.3147e+05   1.68e-24
  4.4021e+05   1.58e-24
  4.4912e+05   1.47e-24
  4.5821e+05   1.39e-24
  4.6749e+05   1.30e-24
  4.7696e+05   1.22e-24
  4.8661e+05   1.14e-24
  4.9647e+05   1.07e-24
  5.0652e+05   9.98e-25
  5.1678e+05   9.38e-25
  5.2724e+05   8.80e-25
  5.3791e+05   8.24e-25
  5.4881e+05   7.70e-25
  5.5992e+05   7.18e-25
  5.7125e+05   6.73e-25
  5.8282e+05   6.32e-25
  5.9462e+05   5.93e-25
  6.0666e+05   5.55e-25
  6.1894e+05   5.18e-25
  6.3148e+05   4.83e-25
  6.4426e+05   4.54e-25
  6.5731e+05   4.28e-25
  6.7061e+05   4.02e-25
  6.8419e+05   3.77e-25
  6.9805e+05   3.53e-25
  7.1218e+05   3.30e-25
  7.2660e+05   3.13e-25
  7.4131e+05   2.95e-25
  7.5632e+05   2.79e-25
  7.7163e+05   2.63e-25
  7.8726e+05   2.47e-25
  8.0320e+05   2.34e-25
  8.1946e+05   2.23e-25
  8.3605e+05   2.12e-25
  8.5298e+05   2.02e-25
  8.7025e+05   1.92e-25
  8.8787e+05   1.82e-25
  9.0585e+05   1.74e-25
  9.2419e+05   1.68e-25
  9.4290e+05   1.61e-25
  9.6199e+05   1.54e-25
  9.8147e+05   1.48e-25
  1.0013e+06   1.42e-25
  1.0216e+06   1.39e-25
  1.0423e+06   1.36e-25
  1.0634e+06   1.32e-25
  1.0849e+06   1.29e-25
  1.1069e+06   1.26e-25
  1.1293e+06   1.24e-25
  1.1522e+06   1.23e-25
  1.1755e+06   1.22e-25
  1.1993e+06   1.22e-25
  1.2236e+06   1.21e-25
  1.2484e+06   1.20e-25
  1.2736e+06   1.21e-25
  1.2994e+06   1.24e-25
  1.3257e+06   1.26e-25
  1.3526e+06   1.29e-25
  1.3800e+06   1.31e-25
  1.4079e+06   1.33e-25
  1.4364e+06   1.31e-25
  1.4655e+06   1.27e-25
  1.4952e+06   1.24e-25
  1.5255e+06   1.21e-25
  1.5563e+06   1.18e-25
  1.5879e+06   1.15e-25
  1.6200e+06   9.32e-26
