#  E [MeV]   Flux [# cm^{-2} s^{-1}  MeV^{-1}]
  3.0000e+04   4.59e-19
  3.0675e+04   4.44e-19
  3.1366e+04   4.30e-19
  3.2072e+04   4.15e-19
  3.2794e+04   4.02e-19
  3.3533e+04   3.89e-19
  3.4288e+04   3.76e-19
  3.5060e+04   3.63e-19
  3.5849e+04   3.51e-19
  3.6656e+04   3.39e-19
  3.7482e+04   3.28e-19
  3.8326e+04   3.17e-19
  3.9188e+04   3.06e-19
  4.0071e+04   2.95e-19
  4.0973e+04   2.85e-19
  4.1896e+04   2.75e-19
  4.2839e+04   2.66e-19
  4.3803e+04   2.57e-19
  4.4790e+04   2.48e-19
  4.5798e+04   2.39e-19
  4.6829e+04   2.30e-19
  4.7884e+04   2.22e-19
  4.8962e+04   2.14e-19
  5.0064e+04   2.07e-19
  5.1191e+04   1.99e-19
  5.2344e+04   1.92e-19
  5.3522e+04   1.85e-19
  5.4727e+04   1.78e-19
  5.5960e+04   1.72e-19
  5.7219e+04   1.65e-19
  5.8508e+04   1.59e-19
  5.9825e+04   1.53e-19
  6.1172e+04   1.48e-19
  6.2549e+04   1.42e-19
  6.3958e+04   1.37e-19
  6.5398e+04   1.31e-19
  6.6870e+04   1.26e-19
  6.8376e+04   1.21e-19
  6.9915e+04   1.17e-19
  7.1489e+04   1.12e-19
  7.3099e+04   1.08e-19
  7.4745e+04   1.03e-19
  7.6428e+04   9.94e-20
  7.8148e+04   9.54e-20
  7.9908e+04   9.16e-20
  8.1707e+04   8.79e-20
  8.3547e+04   8.43e-20
  8.5428e+04   8.09e-20
  8.7351e+04   7.76e-20
  8.9318e+04   7.44e-20
  9.1329e+04   7.13e-20
  9.3385e+04   6.84e-20
  9.5488e+04   6.55e-20
  9.7638e+04   6.27e-20
  9.9836e+04   6.01e-20
  1.0208e+05   5.76e-20
  1.0438e+05   5.51e-20
  1.0673e+05   5.27e-20
  1.0914e+05   5.04e-20
  1.1159e+05   4.83e-20
  1.1411e+05   4.62e-20
  1.1667e+05   4.42e-20
  1.1930e+05   4.22e-20
  1.2199e+05   4.03e-20
  1.2473e+05   3.85e-20
  1.2754e+05   3.68e-20
  1.3041e+05   3.51e-20
  1.3335e+05   3.35e-20
  1.3635e+05   3.20e-20
  1.3942e+05   3.05e-20
  1.4256e+05   2.91e-20
  1.4577e+05   2.78e-20
  1.4905e+05   2.64e-20
  1.5241e+05   2.52e-20
  1.5584e+05   2.40e-20
  1.5935e+05   2.29e-20
  1.6294e+05   2.18e-20
  1.6661e+05   2.07e-20
  1.7036e+05   1.97e-20
  1.7419e+05   1.87e-20
  1.7812e+05   1.78e-20
  1.8213e+05   1.69e-20
  1.8623e+05   1.61e-20
  1.9042e+05   1.53e-20
  1.9471e+05   1.45e-20
  1.9909e+05   1.38e-20
  2.0357e+05   1.31e-20
  2.0816e+05   1.24e-20
  2.1284e+05   1.18e-20
  2.1763e+05   1.11e-20
  2.2253e+05   1.06e-20
  2.2755e+05   1.00e-20
  2.3267e+05   9.49e-21
  2.3791e+05   8.97e-21
  2.4326e+05   8.48e-21
  2.4874e+05   8.02e-21
  2.5434e+05   7.59e-21
  2.6007e+05   7.17e-21
  2.6592e+05   6.77e-21
  2.7191e+05   6.38e-21
  2.7803e+05   6.02e-21
  2.8429e+05   5.69e-21
  2.9069e+05   5.37e-21
  2.9724e+05   5.06e-21
  3.0393e+05   4.76e-21
  3.1077e+05   4.48e-21
  3.1777e+05   4.22e-21
  3.2493e+05   3.97e-21
  3.3224e+05   3.74e-21
  3.3972e+05   3.51e-21
  3.4737e+05   3.29e-21
  3.5519e+05   3.09e-21
  3.6319e+05   2.91e-21
  3.7137e+05   2.73e-21
  3.7973e+05   2.55e-21
  3.8828e+05   2.39e-21
  3.9702e+05   2.24e-21
  4.0596e+05   2.10e-21
  4.1510e+05   1.97e-21
  4.2444e+05   1.84e-21
  4.3400e+05   1.71e-21
  4.4377e+05   1.60e-21
  4.5376e+05   1.50e-21
  4.6398e+05   1.40e-21
  4.7443e+05   1.30e-21
  4.8511e+05   1.21e-21
  4.9603e+05   1.13e-21
  5.0720e+05   1.05e-21
  5.1862e+05   9.79e-22
  5.3030e+05   9.09e-22
  5.4224e+05   8.42e-22
  5.5444e+05   7.80e-22
  5.6693e+05   7.26e-22
  5.7969e+05   6.74e-22
  5.9274e+05   6.23e-22
  6.0609e+05   5.75e-22
  6.1974e+05   5.31e-22
  6.3369e+05   4.93e-22
  6.4796e+05   4.56e-22
  6.6255e+05   4.20e-22
  6.7746e+05   3.87e-22
  6.9272e+05   3.55e-22
  7.0831e+05   3.28e-22
  7.2426e+05   3.03e-22
  7.4057e+05   2.79e-22
  7.5724e+05   2.55e-22
  7.7429e+05   2.33e-22
  7.9172e+05   2.15e-22
  8.0955e+05   1.98e-22
  8.2778e+05   1.81e-22
  8.4641e+05   1.65e-22
  8.6547e+05   1.50e-22
  8.8496e+05   1.38e-22
  9.0488e+05   1.26e-22
  9.2526e+05   1.15e-22
  9.4609e+05   1.05e-22
  9.6739e+05   9.48e-23
  9.8917e+05   8.63e-23
  1.0114e+06   7.88e-23
  1.0342e+06   7.17e-23
  1.0575e+06   6.48e-23
  1.0813e+06   5.83e-23
  1.1057e+06   5.26e-23
  1.1305e+06   4.79e-23
  1.1560e+06   4.34e-23
  1.1820e+06   3.91e-23
  1.2086e+06   3.50e-23
  1.2359e+06   3.13e-23
  1.2637e+06   2.84e-23
  1.2921e+06   2.57e-23
  1.3212e+06   2.30e-23
  1.3510e+06   2.05e-23
  1.3814e+06   1.82e-23
  1.4125e+06   1.65e-23
  1.4443e+06   1.48e-23
  1.4768e+06   1.33e-23
  1.5101e+06   1.18e-23
  1.5441e+06   1.03e-23
  1.5788e+06   9.32e-24
  1.6144e+06   8.36e-24
  1.6507e+06   7.45e-24
  1.6879e+06   6.57e-24
  1.7259e+06   5.73e-24
  1.7648e+06   5.11e-24
  1.8045e+06   4.57e-24
  1.8451e+06   4.05e-24
  1.8867e+06   3.56e-24
  1.9291e+06   3.08e-24
  1.9726e+06   2.71e-24
  2.0170e+06   2.41e-24
  2.0624e+06   2.12e-24
  2.1088e+06   1.85e-24
  2.1563e+06   1.59e-24
  2.2049e+06   1.37e-24
  2.2545e+06   1.20e-24
  2.3053e+06   1.04e-24
  2.3572e+06   8.82e-25
  2.4102e+06   7.34e-25
  2.4645e+06   6.09e-25
  2.5200e+06   5.35e-25
