#  E [MeV]   Flux [# cm^{-2} s^{-1}  MeV^{-1}]
  3.0000e+04   1.34e-24
  3.1141e+04   1.29e-24
  3.2326e+04   1.23e-24
  3.3556e+04   1.17e-24
  3.4832e+04   1.12e-24
  3.6157e+04   1.07e-24
  3.7533e+04   1.02e-24
  3.8961e+04   9.75e-25
  4.0443e+04   9.30e-25
  4.1982e+04   8.88e-25
  4.3579e+04   8.47e-25
  4.5237e+04   8.08e-25
  4.6958e+04   7.71e-25
  4.8744e+04   7.35e-25
  5.0598e+04   7.01e-25
  5.2523e+04   6.68e-25
  5.4521e+04   6.37e-25
  5.6596e+04   6.07e-25
  5.8749e+04   5.78e-25
  6.0984e+04   5.51e-25
  6.3304e+04   5.25e-25
  6.5712e+04   5.00e-25
  6.8212e+04   4.76e-25
  7.0807e+04   4.54e-25
  7.3500e+04   4.32e-25
  7.6297e+04   4.11e-25
  7.9199e+04   3.91e-25
  8.2212e+04   3.72e-25
  8.5340e+04   3.54e-25
  8.8586e+04   3.37e-25
  9.1956e+04   3.21e-25
  9.5455e+04   3.05e-25
  9.9086e+04   2.90e-25
  1.0286e+05   2.76e-25
  1.0677e+05   2.62e-25
  1.1083e+05   2.49e-25
  1.1505e+05   2.37e-25
  1.1942e+05   2.25e-25
  1.2397e+05   2.14e-25
  1.2868e+05   2.03e-25
  1.3358e+05   1.93e-25
  1.3866e+05   1.83e-25
  1.4394e+05   1.74e-25
  1.4941e+05   1.65e-25
  1.5509e+05   1.56e-25
  1.6100e+05   1.48e-25
  1.6712e+05   1.41e-25
  1.7348e+05   1.34e-25
  1.8008e+05   1.27e-25
  1.8693e+05   1.20e-25
  1.9404e+05   1.14e-25
  2.0142e+05   1.08e-25
  2.0908e+05   1.02e-25
  2.1704e+05   9.67e-26
  2.2529e+05   9.16e-26
  2.3387e+05   8.67e-26
  2.4276e+05   8.20e-26
  2.5200e+05   7.76e-26
  2.6158e+05   7.34e-26
  2.7154e+05   6.94e-26
  2.8187e+05   6.56e-26
  2.9259e+05   6.20e-26
  3.0372e+05   5.85e-26
  3.1527e+05   5.53e-26
  3.2727e+05   5.21e-26
  3.3972e+05   4.92e-26
  3.5264e+05   4.64e-26
  3.6606e+05   4.37e-26
  3.7998e+05   4.12e-26
  3.9444e+05   3.87e-26
  4.0945e+05   3.65e-26
  4.2502e+05   3.43e-26
  4.4119e+05   3.22e-26
  4.5798e+05   3.03e-26
  4.7540e+05   2.84e-26
  4.9348e+05   2.67e-26
  5.1226e+05   2.50e-26
  5.3175e+05   2.34e-26
  5.5198e+05   2.19e-26
  5.7297e+05   2.05e-26
  5.9477e+05   1.92e-26
  6.1740e+05   1.79e-26
  6.4089e+05   1.67e-26
  6.6527e+05   1.56e-26
  6.9058e+05   1.46e-26
  7.1685e+05   1.36e-26
  7.4412e+05   1.26e-26
  7.7243e+05   1.18e-26
  8.0181e+05   1.10e-26
  8.3232e+05   1.02e-26
  8.6398e+05   9.49e-27
  8.9685e+05   8.84e-27
  9.3097e+05   8.22e-27
  9.6638e+05   7.64e-27
  1.0031e+06   7.11e-27
  1.0413e+06   6.61e-27
  1.0809e+06   6.14e-27
  1.1220e+06   5.70e-27
  1.1647e+06   5.29e-27
  1.2090e+06   4.91e-27
  1.2550e+06   4.55e-27
  1.3028e+06   4.22e-27
  1.3523e+06   3.91e-27
  1.4038e+06   3.62e-27
  1.4572e+06   3.35e-27
  1.5126e+06   3.10e-27
  1.5702e+06   2.86e-27
  1.6299e+06   2.65e-27
  1.6919e+06   2.44e-27
  1.7563e+06   2.25e-27
  1.8231e+06   2.08e-27
  1.8925e+06   1.92e-27
  1.9645e+06   1.76e-27
  2.0392e+06   1.62e-27
  2.1168e+06   1.49e-27
  2.1973e+06   1.37e-27
  2.2809e+06   1.26e-27
  2.3677e+06   1.16e-27
  2.4577e+06   1.06e-27
  2.5512e+06   9.69e-28
  2.6483e+06   8.86e-28
  2.7490e+06   8.07e-28
  2.8536e+06   7.37e-28
  2.9622e+06   6.72e-28
  3.0749e+06   6.10e-28
  3.1918e+06   5.55e-28
  3.3133e+06   5.04e-28
  3.4393e+06   4.56e-28
  3.5702e+06   4.13e-28
  3.7060e+06   3.73e-28
  3.8470e+06   3.36e-28
  3.9933e+06   3.03e-28
  4.1452e+06   2.72e-28
  4.3029e+06   2.44e-28
  4.4666e+06   2.19e-28
  4.6366e+06   1.96e-28
  4.8129e+06   1.74e-28
  4.9960e+06   1.55e-28
  5.1861e+06   1.38e-28
  5.3834e+06   1.22e-28
  5.5882e+06   1.08e-28
  5.8008e+06   9.54e-29
  6.0215e+06   8.38e-29
  6.2506e+06   7.34e-29
  6.4883e+06   6.45e-29
  6.7352e+06   5.62e-29
  6.9914e+06   4.88e-29
  7.2574e+06   4.26e-29
  7.5335e+06   3.68e-29
  7.8201e+06   3.16e-29
  8.1176e+06   2.74e-29
  8.4264e+06   2.35e-29
  8.7470e+06   1.99e-29
  9.0797e+06   1.71e-29
  9.4251e+06   1.45e-29
  9.7837e+06   1.21e-29
  1.0156e+07   1.03e-29
  1.0542e+07   8.62e-30
  1.0943e+07   7.10e-30
  1.1360e+07   5.94e-30
  1.1792e+07   4.90e-30
  1.2240e+07   3.98e-30
  1.2706e+07   3.27e-30
  1.3189e+07   2.65e-30
  1.3691e+07   2.11e-30
  1.4212e+07   1.69e-30
  1.4753e+07   1.34e-30
  1.5314e+07   1.04e-30
  1.5897e+07   8.12e-31
  1.6501e+07   6.27e-31
  1.7129e+07   4.71e-31
  1.7781e+07   3.52e-31
  1.8457e+07   2.62e-31
  1.9159e+07   1.88e-31
  1.9888e+07   1.33e-31
  2.0645e+07   9.35e-32
  2.1430e+07   6.30e-32
  2.2245e+07   4.13e-32
  2.3092e+07   2.67e-32
  2.3970e+07   1.63e-32
  2.4882e+07   9.52e-33
  2.5829e+07   5.38e-33
  2.6811e+07   2.82e-33
  2.7831e+07   1.36e-33
  2.8890e+07   6.15e-34
  2.9989e+07   2.46e-34
  3.1130e+07   8.61e-35
  3.2314e+07   2.63e-35
  3.3544e+07   6.58e-36
  3.4820e+07   1.29e-36
  3.6144e+07   1.92e-37
  3.7519e+07   1.99e-38
  3.8947e+07   1.30e-39
  4.0428e+07   4.89e-41
  4.1966e+07   8.99e-43
  4.3563e+07   6.66e-45
  4.5220e+07   1.54e-47
  4.6941e+07   7.91e-51
  4.8726e+07   5.76e-55
  5.0580e+07   3.28e-60
