#  E [MeV]   Flux [# cm^{-2} s^{-1}  MeV^{-1}]
  3.0000e+04   2.60e-25
  3.1141e+04   2.49e-25
  3.2326e+04   2.38e-25
  3.3556e+04   2.27e-25
  3.4832e+04   2.17e-25
  3.6157e+04   2.07e-25
  3.7533e+04   1.98e-25
  3.8961e+04   1.89e-25
  4.0443e+04   1.80e-25
  4.1982e+04   1.72e-25
  4.3579e+04   1.64e-25
  4.5237e+04   1.57e-25
  4.6958e+04   1.50e-25
  4.8744e+04   1.43e-25
  5.0598e+04   1.36e-25
  5.2523e+04   1.30e-25
  5.4521e+04   1.24e-25
  5.6596e+04   1.18e-25
  5.8749e+04   1.12e-25
  6.0984e+04   1.07e-25
  6.3304e+04   1.02e-25
  6.5712e+04   9.71e-26
  6.8212e+04   9.25e-26
  7.0807e+04   8.80e-26
  7.3500e+04   8.38e-26
  7.6297e+04   7.97e-26
  7.9199e+04   7.58e-26
  8.2212e+04   7.21e-26
  8.5340e+04   6.85e-26
  8.8586e+04   6.51e-26
  9.1956e+04   6.19e-26
  9.5455e+04   5.88e-26
  9.9086e+04   5.58e-26
  1.0286e+05   5.30e-26
  1.0677e+05   5.03e-26
  1.1083e+05   4.77e-26
  1.1505e+05   4.53e-26
  1.1942e+05   4.29e-26
  1.2397e+05   4.07e-26
  1.2868e+05   3.85e-26
  1.3358e+05   3.65e-26
  1.3866e+05   3.45e-26
  1.4394e+05   3.27e-26
  1.4941e+05   3.09e-26
  1.5509e+05   2.92e-26
  1.6100e+05   2.76e-26
  1.6712e+05   2.61e-26
  1.7348e+05   2.46e-26
  1.8008e+05   2.32e-26
  1.8693e+05   2.19e-26
  1.9404e+05   2.06e-26
  2.0142e+05   1.94e-26
  2.0908e+05   1.82e-26
  2.1704e+05   1.71e-26
  2.2529e+05   1.61e-26
  2.3387e+05   1.51e-26
  2.4276e+05   1.41e-26
  2.5200e+05   1.32e-26
  2.6158e+05   1.24e-26
  2.7154e+05   1.16e-26
  2.8187e+05   1.08e-26
  2.9259e+05   1.01e-26
  3.0372e+05   9.39e-27
  3.1527e+05   8.73e-27
  3.2727e+05   8.11e-27
  3.3972e+05   7.53e-27
  3.5264e+05   6.98e-27
  3.6606e+05   6.46e-27
  3.7998e+05   5.98e-27
  3.9444e+05   5.52e-27
  4.0945e+05   5.09e-27
  4.2502e+05   4.69e-27
  4.4119e+05   4.31e-27
  4.5798e+05   3.96e-27
  4.7540e+05   3.64e-27
  4.9348e+05   3.34e-27
  5.1226e+05   3.05e-27
  5.3175e+05   2.79e-27
  5.5198e+05   2.55e-27
  5.7297e+05   2.33e-27
  5.9477e+05   2.13e-27
  6.1740e+05   1.94e-27
  6.4089e+05   1.76e-27
  6.6527e+05   1.60e-27
  6.9058e+05   1.46e-27
  7.1685e+05   1.32e-27
  7.4412e+05   1.20e-27
  7.7243e+05   1.09e-27
  8.0181e+05   9.90e-28
  8.3232e+05   8.98e-28
  8.6398e+05   8.15e-28
  8.9685e+05   7.38e-28
  9.3097e+05   6.69e-28
  9.6638e+05   6.06e-28
  1.0031e+06   5.49e-28
  1.0413e+06   4.97e-28
  1.0809e+06   4.51e-28
  1.1220e+06   4.08e-28
  1.1647e+06   3.70e-28
  1.2090e+06   3.35e-28
  1.2550e+06   3.03e-28
  1.3028e+06   2.75e-28
  1.3523e+06   2.49e-28
  1.4038e+06   2.25e-28
  1.4572e+06   2.04e-28
  1.5126e+06   1.85e-28
  1.5702e+06   1.67e-28
  1.6299e+06   1.51e-28
  1.6919e+06   1.37e-28
  1.7563e+06   1.24e-28
  1.8231e+06   1.12e-28
  1.8925e+06   1.02e-28
  1.9645e+06   9.20e-29
  2.0392e+06   8.30e-29
  2.1168e+06   7.50e-29
  2.1973e+06   6.77e-29
  2.2809e+06   6.10e-29
  2.3677e+06   5.50e-29
  2.4577e+06   4.95e-29
  2.5512e+06   4.44e-29
  2.6483e+06   3.99e-29
  2.7490e+06   3.58e-29
  2.8536e+06   3.19e-29
  2.9622e+06   2.86e-29
  3.0749e+06   2.55e-29
  3.1918e+06   2.27e-29
  3.3133e+06   2.01e-29
  3.4393e+06   1.79e-29
  3.5702e+06   1.58e-29
  3.7060e+06   1.39e-29
  3.8470e+06   1.23e-29
  3.9933e+06   1.08e-29
  4.1452e+06   9.41e-30
  4.3029e+06   8.24e-30
  4.4666e+06   7.16e-30
  4.6366e+06   6.19e-30
  4.8129e+06   5.36e-30
  4.9960e+06   4.60e-30
  5.1861e+06   3.93e-30
  5.3834e+06   3.36e-30
  5.5882e+06   2.85e-30
  5.8008e+06   2.40e-30
  6.0215e+06   2.02e-30
  6.2506e+06   1.69e-30
  6.4883e+06   1.39e-30
  6.7352e+06   1.16e-30
  6.9914e+06   9.50e-31
  7.2574e+06   7.68e-31
  7.5335e+06   6.24e-31
  7.8201e+06   5.01e-31
  8.1176e+06   3.95e-31
  8.4264e+06   3.12e-31
  8.7470e+06   2.44e-31
  9.0797e+06   1.87e-31
  9.4251e+06   1.42e-31
  9.7837e+06   1.07e-31
  1.0156e+07   7.88e-32
  1.0542e+07   5.76e-32
  1.0943e+07   4.14e-32
  1.1360e+07   2.90e-32
  1.1792e+07   2.00e-32
  1.2240e+07   1.35e-32
  1.2706e+07   8.88e-33
  1.3189e+07   5.68e-33
  1.3691e+07   3.55e-33
  1.4212e+07   2.13e-33
  1.4753e+07   1.23e-33
  1.5314e+07   6.89e-34
  1.5897e+07   3.65e-34
  1.6501e+07   1.83e-34
  1.7129e+07   8.77e-35
  1.7781e+07   3.89e-35
  1.8457e+07   1.59e-35
  1.9159e+07   6.09e-36
  1.9888e+07   2.09e-36
  2.0645e+07   6.39e-37
  2.1430e+07   1.74e-37
  2.2245e+07   4.07e-38
  2.3092e+07   7.96e-39
  2.3970e+07   1.29e-39
  2.4882e+07   1.66e-40
  2.5829e+07   1.61e-41
  2.6811e+07   1.15e-42
  2.7831e+07   5.67e-44
  2.8890e+07   1.78e-45
  2.9989e+07   3.37e-47
  3.1130e+07   3.41e-49
  3.2314e+07   1.64e-51
  3.3544e+07   3.27e-54
  3.4820e+07   2.22e-57
  3.6144e+07   4.09e-61
  3.7519e+07   1.53e-65
  3.8947e+07   8.14e-71
  4.0428e+07   4.35e-72
  4.1966e+07   3.94e-72
  4.3563e+07   3.56e-72
  4.5220e+07   3.20e-72
  4.6941e+07   2.91e-72
  4.8726e+07   2.67e-72
  5.0580e+07   2.44e-72
