#  E [MeV]   Flux [# cm^{-2} s^{-1}  MeV^{-1}]
  3.0000e+04   1.70e-25
  3.1141e+04   1.63e-25
  3.2326e+04   1.56e-25
  3.3556e+04   1.50e-25
  3.4832e+04   1.44e-25
  3.6157e+04   1.38e-25
  3.7533e+04   1.32e-25
  3.8961e+04   1.27e-25
  4.0443e+04   1.22e-25
  4.1982e+04   1.17e-25
  4.3579e+04   1.12e-25
  4.5237e+04   1.07e-25
  4.6958e+04   1.03e-25
  4.8744e+04   9.84e-26
  5.0598e+04   9.43e-26
  5.2523e+04   9.03e-26
  5.4521e+04   8.66e-26
  5.6596e+04   8.29e-26
  5.8749e+04   7.94e-26
  6.0984e+04   7.60e-26
  6.3304e+04   7.28e-26
  6.5712e+04   6.97e-26
  6.8212e+04   6.67e-26
  7.0807e+04   6.39e-26
  7.3500e+04   6.11e-26
  7.6297e+04   5.85e-26
  7.9199e+04   5.60e-26
  8.2212e+04   5.35e-26
  8.5340e+04   5.12e-26
  8.8586e+04   4.89e-26
  9.1956e+04   4.68e-26
  9.5455e+04   4.47e-26
  9.9086e+04   4.27e-26
  1.0286e+05   4.08e-26
  1.0677e+05   3.90e-26
  1.1083e+05   3.72e-26
  1.1505e+05   3.55e-26
  1.1942e+05   3.39e-26
  1.2397e+05   3.24e-26
  1.2868e+05   3.09e-26
  1.3358e+05   2.94e-26
  1.3866e+05   2.81e-26
  1.4394e+05   2.68e-26
  1.4941e+05   2.55e-26
  1.5509e+05   2.43e-26
  1.6100e+05   2.31e-26
  1.6712e+05   2.20e-26
  1.7348e+05   2.09e-26
  1.8008e+05   1.99e-26
  1.8693e+05   1.89e-26
  1.9404e+05   1.80e-26
  2.0142e+05   1.71e-26
  2.0908e+05   1.62e-26
  2.1704e+05   1.54e-26
  2.2529e+05   1.46e-26
  2.3387e+05   1.38e-26
  2.4276e+05   1.31e-26
  2.5200e+05   1.24e-26
  2.6158e+05   1.17e-26
  2.7154e+05   1.11e-26
  2.8187e+05   1.05e-26
  2.9259e+05   9.88e-27
  3.0372e+05   9.33e-27
  3.1527e+05   8.80e-27
  3.2727e+05   8.29e-27
  3.3972e+05   7.80e-27
  3.5264e+05   7.34e-27
  3.6606e+05   6.90e-27
  3.7998e+05   6.48e-27
  3.9444e+05   6.08e-27
  4.0945e+05   5.70e-27
  4.2502e+05   5.35e-27
  4.4119e+05   5.01e-27
  4.5798e+05   4.69e-27
  4.7540e+05   4.38e-27
  4.9348e+05   4.10e-27
  5.1226e+05   3.83e-27
  5.3175e+05   3.57e-27
  5.5198e+05   3.33e-27
  5.7297e+05   3.10e-27
  5.9477e+05   2.89e-27
  6.1740e+05   2.69e-27
  6.4089e+05   2.50e-27
  6.6527e+05   2.32e-27
  6.9058e+05   2.16e-27
  7.1685e+05   2.01e-27
  7.4412e+05   1.86e-27
  7.7243e+05   1.73e-27
  8.0181e+05   1.60e-27
  8.3232e+05   1.48e-27
  8.6398e+05   1.37e-27
  8.9685e+05   1.27e-27
  9.3097e+05   1.18e-27
  9.6638e+05   1.09e-27
  1.0031e+06   1.01e-27
  1.0413e+06   9.35e-28
  1.0809e+06   8.64e-28
  1.1220e+06   8.00e-28
  1.1647e+06   7.40e-28
  1.2090e+06   6.83e-28
  1.2550e+06   6.32e-28
  1.3028e+06   5.84e-28
  1.3523e+06   5.39e-28
  1.4038e+06   4.98e-28
  1.4572e+06   4.60e-28
  1.5126e+06   4.24e-28
  1.5702e+06   3.92e-28
  1.6299e+06   3.61e-28
  1.6919e+06   3.33e-28
  1.7563e+06   3.07e-28
  1.8231e+06   2.83e-28
  1.8925e+06   2.61e-28
  1.9645e+06   2.41e-28
  2.0392e+06   2.22e-28
  2.1168e+06   2.04e-28
  2.1973e+06   1.88e-28
  2.2809e+06   1.73e-28
  2.3677e+06   1.59e-28
  2.4577e+06   1.46e-28
  2.5512e+06   1.34e-28
  2.6483e+06   1.23e-28
  2.7490e+06   1.12e-28
  2.8536e+06   1.03e-28
  2.9622e+06   9.41e-29
  3.0749e+06   8.60e-29
  3.1918e+06   7.86e-29
  3.3133e+06   7.17e-29
  3.4393e+06   6.52e-29
  3.5702e+06   5.95e-29
  3.7060e+06   5.40e-29
  3.8470e+06   4.90e-29
  3.9933e+06   4.45e-29
  4.1452e+06   4.03e-29
  4.3029e+06   3.64e-29
  4.4666e+06   3.29e-29
  4.6366e+06   2.97e-29
  4.8129e+06   2.66e-29
  4.9960e+06   2.40e-29
  5.1861e+06   2.15e-29
  5.3834e+06   1.92e-29
  5.5882e+06   1.72e-29
  5.8008e+06   1.53e-29
  6.0215e+06   1.36e-29
  6.2506e+06   1.20e-29
  6.4883e+06   1.07e-29
  6.7352e+06   9.37e-30
  6.9914e+06   8.26e-30
  7.2574e+06   7.25e-30
  7.5335e+06   6.32e-30
  7.8201e+06   5.51e-30
  8.1176e+06   4.79e-30
  8.4264e+06   4.13e-30
  8.7470e+06   3.56e-30
  9.0797e+06   3.05e-30
  9.4251e+06   2.60e-30
  9.7837e+06   2.21e-30
  1.0156e+07   1.87e-30
  1.0542e+07   1.56e-30
  1.0943e+07   1.30e-30
  1.1360e+07   1.08e-30
  1.1792e+07   8.85e-31
  1.2240e+07   7.20e-31
  1.2706e+07   5.83e-31
  1.3189e+07   4.65e-31
  1.3691e+07   3.67e-31
  1.4212e+07   2.88e-31
  1.4753e+07   2.21e-31
  1.5314e+07   1.67e-31
  1.5897e+07   1.26e-31
  1.6501e+07   9.19e-32
  1.7129e+07   6.56e-32
  1.7781e+07   4.61e-32
  1.8457e+07   3.13e-32
  1.9159e+07   2.05e-32
  1.9888e+07   1.32e-32
  2.0645e+07   8.04e-33
  2.1430e+07   4.66e-33
  2.2245e+07   2.58e-33
  2.3092e+07   1.33e-33
  2.3970e+07   6.32e-34
  2.4882e+07   2.77e-34
  2.5829e+07   1.09e-34
  2.6811e+07   3.75e-35
  2.7831e+07   1.12e-35
  2.8890e+07   2.77e-36
  2.9989e+07   5.49e-37
  3.1130e+07   8.48e-38
  3.2314e+07   9.52e-39
  3.3544e+07   7.16e-40
  3.4820e+07   3.39e-41
  3.6144e+07   8.87e-43
  3.7519e+07   1.10e-44
  3.8947e+07   5.56e-47
  4.0428e+07   8.96e-50
  4.1966e+07   3.19e-53
  4.3563e+07   1.88e-57
  4.5220e+07   1.02e-62
  4.6941e+07   2.11e-69
  4.8726e+07   2.40e-70
  5.0580e+07   3.02e-70
