#  E [MeV]   Flux [# cm^{-2} s^{-1}  MeV^{-1}]
  3.0000e+04   7.20e-21
  3.0589e+04   7.01e-21
  3.1190e+04   6.82e-21
  3.1803e+04   6.63e-21
  3.2428e+04   6.46e-21
  3.3065e+04   6.28e-21
  3.3714e+04   6.12e-21
  3.4376e+04   5.95e-21
  3.5052e+04   5.79e-21
  3.5740e+04   5.64e-21
  3.6442e+04   5.49e-21
  3.7158e+04   5.34e-21
  3.7888e+04   5.20e-21
  3.8632e+04   5.06e-21
  3.9391e+04   4.92e-21
  4.0165e+04   4.79e-21
  4.0954e+04   4.66e-21
  4.1758e+04   4.54e-21
  4.2579e+04   4.41e-21
  4.3415e+04   4.30e-21
  4.4268e+04   4.18e-21
  4.5138e+04   4.07e-21
  4.6024e+04   3.96e-21
  4.6928e+04   3.86e-21
  4.7850e+04   3.75e-21
  4.8790e+04   3.65e-21
  4.9749e+04   3.56e-21
  5.0726e+04   3.46e-21
  5.1722e+04   3.37e-21
  5.2738e+04   3.28e-21
  5.3774e+04   3.20e-21
  5.4831e+04   3.11e-21
  5.5908e+04   3.03e-21
  5.7006e+04   2.95e-21
  5.8126e+04   2.87e-21
  5.9268e+04   2.80e-21
  6.0432e+04   2.72e-21
  6.1619e+04   2.65e-21
  6.2829e+04   2.58e-21
  6.4064e+04   2.51e-21
  6.5322e+04   2.45e-21
  6.6605e+04   2.39e-21
  6.7913e+04   2.33e-21
  6.9248e+04   2.26e-21
  7.0608e+04   2.21e-21
  7.1995e+04   2.15e-21
  7.3409e+04   2.09e-21
  7.4851e+04   2.04e-21
  7.6321e+04   1.99e-21
  7.7821e+04   1.94e-21
  7.9349e+04   1.89e-21
  8.0908e+04   1.84e-21
  8.2497e+04   1.79e-21
  8.4118e+04   1.75e-21
  8.5770e+04   1.70e-21
  8.7455e+04   1.66e-21
  8.9173e+04   1.62e-21
  9.0925e+04   1.58e-21
  9.2711e+04   1.54e-21
  9.4532e+04   1.50e-21
  9.6389e+04   1.46e-21
  9.8283e+04   1.42e-21
  1.0021e+05   1.39e-21
  1.0218e+05   1.35e-21
  1.0419e+05   1.32e-21
  1.0624e+05   1.29e-21
  1.0832e+05   1.25e-21
  1.1045e+05   1.22e-21
  1.1262e+05   1.19e-21
  1.1483e+05   1.16e-21
  1.1709e+05   1.13e-21
  1.1939e+05   1.11e-21
  1.2173e+05   1.08e-21
  1.2412e+05   1.05e-21
  1.2656e+05   1.03e-21
  1.2905e+05   1.00e-21
  1.3158e+05   9.76e-22
  1.3417e+05   9.52e-22
  1.3680e+05   9.28e-22
  1.3949e+05   9.05e-22
  1.4223e+05   8.83e-22
  1.4503e+05   8.61e-22
  1.4787e+05   8.41e-22
  1.5078e+05   8.20e-22
  1.5374e+05   8.00e-22
  1.5676e+05   7.81e-22
  1.5984e+05   7.62e-22
  1.6298e+05   7.43e-22
  1.6618e+05   7.25e-22
  1.6945e+05   7.07e-22
  1.7278e+05   6.90e-22
  1.7617e+05   6.73e-22
  1.7963e+05   6.56e-22
  1.8316e+05   6.40e-22
  1.8676e+05   6.25e-22
  1.9042e+05   6.10e-22
  1.9417e+05   5.95e-22
  1.9798e+05   5.80e-22
  2.0187e+05   5.66e-22
  2.0583e+05   5.52e-22
  2.0988e+05   5.39e-22
  2.1400e+05   5.26e-22
  2.1820e+05   5.13e-22
  2.2249e+05   5.00e-22
  2.2686e+05   4.88e-22
  2.3132e+05   4.76e-22
  2.3586e+05   4.65e-22
  2.4049e+05   4.54e-22
  2.4522e+05   4.43e-22
  2.5004e+05   4.32e-22
  2.5495e+05   4.21e-22
  2.5996e+05   4.11e-22
  2.6506e+05   4.01e-22
  2.7027e+05   3.91e-22
  2.7558e+05   3.82e-22
  2.8099e+05   3.72e-22
  2.8651e+05   3.63e-22
  2.9214e+05   3.54e-22
  2.9788e+05   3.46e-22
  3.0373e+05   3.37e-22
  3.0970e+05   3.29e-22
  3.1578e+05   3.21e-22
  3.2198e+05   3.13e-22
  3.2831e+05   3.05e-22
  3.3476e+05   2.97e-22
  3.4133e+05   2.90e-22
  3.4804e+05   2.82e-22
  3.5487e+05   2.75e-22
  3.6185e+05   2.68e-22
  3.6895e+05   2.62e-22
  3.7620e+05   2.55e-22
  3.8359e+05   2.48e-22
  3.9113e+05   2.42e-22
  3.9881e+05   2.36e-22
  4.0664e+05   2.30e-22
  4.1463e+05   2.24e-22
  4.2278e+05   2.18e-22
  4.3108e+05   2.12e-22
  4.3955e+05   2.07e-22
  4.4818e+05   2.01e-22
  4.5699e+05   1.96e-22
  4.6596e+05   1.91e-22
  4.7512e+05   1.86e-22
  4.8445e+05   1.81e-22
  4.9397e+05   1.76e-22
  5.0367e+05   1.71e-22
  5.1356e+05   1.67e-22
  5.2365e+05   1.62e-22
  5.3394e+05   1.58e-22
  5.4443e+05   1.54e-22
  5.5512e+05   1.49e-22
  5.6603e+05   1.45e-22
  5.7715e+05   1.41e-22
  5.8848e+05   1.38e-22
  6.0004e+05   1.34e-22
  6.1183e+05   1.30e-22
  6.2385e+05   1.26e-22
  6.3610e+05   1.23e-22
  6.4860e+05   1.19e-22
  6.6134e+05   1.16e-22
  6.7433e+05   1.13e-22
  6.8758e+05   1.09e-22
  7.0108e+05   1.06e-22
  7.1486e+05   1.03e-22
  7.2890e+05   1.00e-22
  7.4322e+05   9.74e-23
  7.5782e+05   9.46e-23
  7.7270e+05   9.18e-23
  7.8788e+05   8.91e-23
  8.0336e+05   8.65e-23
  8.1914e+05   8.39e-23
  8.3523e+05   8.14e-23
  8.5164e+05   7.90e-23
  8.6837e+05   7.67e-23
  8.8542e+05   7.44e-23
  9.0282e+05   7.21e-23
  9.2055e+05   7.00e-23
  9.3863e+05   6.79e-23
  9.5707e+05   6.59e-23
  9.7587e+05   6.39e-23
  9.9504e+05   6.20e-23
  1.0146e+06   6.01e-23
  1.0345e+06   5.83e-23
  1.0548e+06   5.66e-23
  1.0756e+06   5.48e-23
  1.0967e+06   5.32e-23
  1.1182e+06   5.16e-23
  1.1402e+06   5.00e-23
  1.1626e+06   4.84e-23
  1.1854e+06   4.69e-23
  1.2087e+06   4.54e-23
  1.2325e+06   4.39e-23
  1.2567e+06   4.26e-23
  1.2814e+06   4.12e-23
  1.3065e+06   3.98e-23
  1.3322e+06   3.85e-23
  1.3584e+06   3.73e-23
  1.3851e+06   3.61e-23
  1.4123e+06   3.49e-23
  1.4400e+06   3.38e-23
