#  E [GeV]   # per interaction  [GeV^{-1}]
  3.0000e+01   1.11e+00
  3.1141e+01   1.06e+00
  3.2326e+01   1.01e+00
  3.3556e+01   9.68e-01
  3.4832e+01   9.24e-01
  3.6157e+01   8.82e-01
  3.7533e+01   8.42e-01
  3.8961e+01   8.04e-01
  4.0443e+01   7.67e-01
  4.1982e+01   7.32e-01
  4.3579e+01   6.98e-01
  4.5237e+01   6.66e-01
  4.6958e+01   6.35e-01
  4.8744e+01   6.06e-01
  5.0598e+01   5.77e-01
  5.2523e+01   5.50e-01
  5.4521e+01   5.25e-01
  5.6596e+01   5.00e-01
  5.8749e+01   4.76e-01
  6.0984e+01   4.54e-01
  6.3304e+01   4.32e-01
  6.5712e+01   4.12e-01
  6.8212e+01   3.92e-01
  7.0807e+01   3.73e-01
  7.3500e+01   3.55e-01
  7.6297e+01   3.38e-01
  7.9199e+01   3.22e-01
  8.2212e+01   3.06e-01
  8.5340e+01   2.91e-01
  8.8586e+01   2.77e-01
  9.1956e+01   2.63e-01
  9.5455e+01   2.50e-01
  9.9086e+01   2.38e-01
  1.0286e+02   2.26e-01
  1.0677e+02   2.15e-01
  1.1083e+02   2.04e-01
  1.1505e+02   1.94e-01
  1.1942e+02   1.84e-01
  1.2397e+02   1.75e-01
  1.2868e+02   1.66e-01
  1.3358e+02   1.57e-01
  1.3866e+02   1.49e-01
  1.4394e+02   1.42e-01
  1.4941e+02   1.34e-01
  1.5509e+02   1.28e-01
  1.6100e+02   1.21e-01
  1.6712e+02   1.15e-01
  1.7348e+02   1.09e-01
  1.8008e+02   1.03e-01
  1.8693e+02   9.73e-02
  1.9404e+02   9.21e-02
  2.0142e+02   8.72e-02
  2.0908e+02   8.24e-02
  2.1704e+02   7.80e-02
  2.2529e+02   7.37e-02
  2.3387e+02   6.96e-02
  2.4276e+02   6.58e-02
  2.5200e+02   6.21e-02
  2.6158e+02   5.86e-02
  2.7154e+02   5.52e-02
  2.8187e+02   5.21e-02
  2.9259e+02   4.91e-02
  3.0372e+02   4.62e-02
  3.1527e+02   4.35e-02
  3.2727e+02   4.09e-02
  3.3972e+02   3.85e-02
  3.5264e+02   3.61e-02
  3.6606e+02   3.39e-02
  3.7998e+02   3.18e-02
  3.9444e+02   2.98e-02
  4.0945e+02   2.79e-02
  4.2502e+02   2.62e-02
  4.4119e+02   2.45e-02
  4.5798e+02   2.29e-02
  4.7540e+02   2.14e-02
  4.9348e+02   1.99e-02
  5.1226e+02   1.86e-02
  5.3175e+02   1.73e-02
  5.5198e+02   1.61e-02
  5.7297e+02   1.50e-02
  5.9477e+02   1.39e-02
  6.1740e+02   1.29e-02
  6.4089e+02   1.20e-02
  6.6527e+02   1.11e-02
  6.9058e+02   1.03e-02
  7.1685e+02   9.55e-03
  7.4412e+02   8.84e-03
  7.7243e+02   8.18e-03
  8.0181e+02   7.57e-03
  8.3232e+02   7.00e-03
  8.6398e+02   6.48e-03
  8.9685e+02   5.99e-03
  9.3097e+02   5.54e-03
  9.6638e+02   5.12e-03
  1.0031e+03   4.73e-03
  1.0413e+03   4.37e-03
  1.0809e+03   4.04e-03
  1.1220e+03   3.73e-03
  1.1647e+03   3.44e-03
  1.2090e+03   3.18e-03
  1.2550e+03   2.93e-03
  1.3028e+03   2.70e-03
  1.3523e+03   2.49e-03
  1.4038e+03   2.30e-03
  1.4572e+03   2.12e-03
  1.5126e+03   1.95e-03
  1.5702e+03   1.79e-03
  1.6299e+03   1.65e-03
  1.6919e+03   1.52e-03
  1.7563e+03   1.39e-03
  1.8231e+03   1.28e-03
  1.8925e+03   1.18e-03
  1.9645e+03   1.08e-03
  2.0392e+03   9.89e-04
  2.1168e+03   9.06e-04
  2.1973e+03   8.30e-04
  2.2809e+03   7.59e-04
  2.3677e+03   6.94e-04
  2.4577e+03   6.33e-04
  2.5512e+03   5.78e-04
  2.6483e+03   5.26e-04
  2.7490e+03   4.78e-04
  2.8536e+03   4.35e-04
  2.9622e+03   3.94e-04
  3.0749e+03   3.57e-04
  3.1918e+03   3.23e-04
  3.3133e+03   2.92e-04
  3.4393e+03   2.63e-04
  3.5702e+03   2.37e-04
  3.7060e+03   2.13e-04
  3.8470e+03   1.91e-04
  3.9933e+03   1.71e-04
  4.1452e+03   1.53e-04
  4.3029e+03   1.36e-04
  4.4666e+03   1.21e-04
  4.6366e+03   1.08e-04
  4.8129e+03   9.49e-05
  4.9960e+03   8.40e-05
  5.1861e+03   7.39e-05
  5.3834e+03   6.46e-05
  5.5882e+03   5.67e-05
  5.8008e+03   4.95e-05
  6.0215e+03   4.28e-05
  6.2506e+03   3.72e-05
  6.4883e+03   3.22e-05
  6.7352e+03   2.75e-05
  6.9914e+03   2.37e-05
  7.2574e+03   2.02e-05
  7.5335e+03   1.71e-05
  7.8201e+03   1.45e-05
  8.1176e+03   1.23e-05
  8.4264e+03   1.02e-05
  8.7470e+03   8.54e-06
  9.0797e+03   7.11e-06
  9.4251e+03   5.83e-06
  9.7837e+03   4.77e-06
  1.0156e+04   3.90e-06
  1.0542e+04   3.13e-06
  1.0943e+04   2.50e-06
  1.1360e+04   2.00e-06
  1.1792e+04   1.57e-06
  1.2240e+04   1.21e-06
  1.2706e+04   9.43e-07
  1.3189e+04   7.16e-07
  1.3691e+04   5.34e-07
  1.4212e+04   4.00e-07
  1.4753e+04   2.91e-07
  1.5314e+04   2.07e-07
  1.5897e+04   1.47e-07
  1.6501e+04   1.01e-07
  1.7129e+04   6.72e-08
  1.7781e+04   4.46e-08
  1.8457e+04   2.84e-08
  1.9159e+04   1.71e-08
  1.9888e+04   1.03e-08
  2.0645e+04   5.82e-09
  2.1430e+04   3.08e-09
  2.2245e+04   1.58e-09
  2.3092e+04   7.54e-10
  2.3970e+04   3.26e-10
  2.4882e+04   1.32e-10
  2.5829e+04   4.75e-11
  2.6811e+04   1.48e-11
  2.7831e+04   4.04e-12
  2.8890e+04   9.15e-13
  2.9989e+04   1.64e-13
  3.1130e+04   2.28e-14
  3.2314e+04   2.31e-15
  3.3544e+04   1.56e-16
  3.4820e+04   6.48e-18
  3.6144e+04   1.49e-19
  3.7519e+04   1.61e-21
  3.8947e+04   6.82e-24
  4.0428e+04   8.94e-27
  4.1966e+04   2.62e-30
  4.3563e+04   1.13e-34
  4.5220e+04   4.17e-40
  4.6941e+04   6.24e-47
  4.8726e+04   5.09e-48
  5.0580e+04   4.52e-48
