#  E [GeV]   # per interaction  [GeV^{-1}]
  3.0000e+01   4.39e-01
  3.0782e+01   4.24e-01
  3.1585e+01   4.10e-01
  3.2409e+01   3.96e-01
  3.3255e+01   3.83e-01
  3.4122e+01   3.70e-01
  3.5012e+01   3.57e-01
  3.5925e+01   3.45e-01
  3.6862e+01   3.33e-01
  3.7824e+01   3.21e-01
  3.8810e+01   3.10e-01
  3.9822e+01   2.99e-01
  4.0861e+01   2.88e-01
  4.1927e+01   2.78e-01
  4.3021e+01   2.67e-01
  4.4143e+01   2.58e-01
  4.5294e+01   2.48e-01
  4.6475e+01   2.39e-01
  4.7688e+01   2.30e-01
  4.8931e+01   2.21e-01
  5.0208e+01   2.13e-01
  5.1517e+01   2.05e-01
  5.2861e+01   1.97e-01
  5.4240e+01   1.89e-01
  5.5654e+01   1.82e-01
  5.7106e+01   1.74e-01
  5.8596e+01   1.68e-01
  6.0124e+01   1.61e-01
  6.1692e+01   1.54e-01
  6.3301e+01   1.48e-01
  6.4952e+01   1.42e-01
  6.6647e+01   1.36e-01
  6.8385e+01   1.30e-01
  7.0169e+01   1.25e-01
  7.1999e+01   1.20e-01
  7.3877e+01   1.15e-01
  7.5804e+01   1.10e-01
  7.7781e+01   1.05e-01
  7.9810e+01   1.01e-01
  8.1891e+01   9.62e-02
  8.4027e+01   9.20e-02
  8.6219e+01   8.80e-02
  8.8468e+01   8.41e-02
  9.0775e+01   8.04e-02
  9.3143e+01   7.68e-02
  9.5572e+01   7.33e-02
  9.8065e+01   7.00e-02
  1.0062e+02   6.68e-02
  1.0325e+02   6.38e-02
  1.0594e+02   6.08e-02
  1.0870e+02   5.80e-02
  1.1154e+02   5.53e-02
  1.1445e+02   5.27e-02
  1.1743e+02   5.02e-02
  1.2050e+02   4.78e-02
  1.2364e+02   4.54e-02
  1.2686e+02   4.32e-02
  1.3017e+02   4.11e-02
  1.3357e+02   3.90e-02
  1.3705e+02   3.71e-02
  1.4063e+02   3.52e-02
  1.4429e+02   3.34e-02
  1.4806e+02   3.17e-02
  1.5192e+02   3.01e-02
  1.5588e+02   2.85e-02
  1.5995e+02   2.70e-02
  1.6412e+02   2.56e-02
  1.6840e+02   2.42e-02
  1.7279e+02   2.29e-02
  1.7730e+02   2.16e-02
  1.8193e+02   2.05e-02
  1.8667e+02   1.93e-02
  1.9154e+02   1.82e-02
  1.9654e+02   1.72e-02
  2.0166e+02   1.62e-02
  2.0692e+02   1.53e-02
  2.1232e+02   1.44e-02
  2.1786e+02   1.36e-02
  2.2354e+02   1.28e-02
  2.2937e+02   1.20e-02
  2.3535e+02   1.13e-02
  2.4149e+02   1.06e-02
  2.4779e+02   9.95e-03
  2.5425e+02   9.33e-03
  2.6088e+02   8.74e-03
  2.6769e+02   8.18e-03
  2.7467e+02   7.66e-03
  2.8184e+02   7.17e-03
  2.8919e+02   6.70e-03
  2.9673e+02   6.24e-03
  3.0447e+02   5.83e-03
  3.1241e+02   5.44e-03
  3.2056e+02   5.07e-03
  3.2892e+02   4.72e-03
  3.3750e+02   4.39e-03
  3.4630e+02   4.09e-03
  3.5533e+02   3.80e-03
  3.6460e+02   3.52e-03
  3.7411e+02   3.26e-03
  3.8387e+02   3.03e-03
  3.9388e+02   2.81e-03
  4.0416e+02   2.60e-03
  4.1470e+02   2.40e-03
  4.2551e+02   2.21e-03
  4.3661e+02   2.05e-03
  4.4800e+02   1.89e-03
  4.5969e+02   1.74e-03
  4.7168e+02   1.60e-03
  4.8398e+02   1.47e-03
  4.9660e+02   1.36e-03
  5.0956e+02   1.25e-03
  5.2285e+02   1.14e-03
  5.3648e+02   1.05e-03
  5.5048e+02   9.60e-04
  5.6483e+02   8.80e-04
  5.7957e+02   8.04e-04
  5.9468e+02   7.33e-04
  6.1020e+02   6.72e-04
  6.2611e+02   6.14e-04
  6.4244e+02   5.60e-04
  6.5920e+02   5.09e-04
  6.7639e+02   4.64e-04
  6.9403e+02   4.24e-04
  7.1214e+02   3.86e-04
  7.3071e+02   3.51e-04
  7.4977e+02   3.18e-04
  7.6933e+02   2.90e-04
  7.8939e+02   2.64e-04
  8.0998e+02   2.39e-04
  8.3111e+02   2.16e-04
  8.5279e+02   1.96e-04
  8.7503e+02   1.79e-04
  8.9785e+02   1.62e-04
  9.2127e+02   1.46e-04
  9.4530e+02   1.32e-04
  9.6996e+02   1.20e-04
  9.9526e+02   1.09e-04
  1.0212e+03   9.81e-05
  1.0479e+03   8.82e-05
  1.0752e+03   7.98e-05
  1.1032e+03   7.24e-05
  1.1320e+03   6.54e-05
  1.1615e+03   5.89e-05
  1.1918e+03   5.29e-05
  1.2229e+03   4.80e-05
  1.2548e+03   4.35e-05
  1.2875e+03   3.92e-05
  1.3211e+03   3.51e-05
  1.3556e+03   3.18e-05
  1.3909e+03   2.88e-05
  1.4272e+03   2.60e-05
  1.4644e+03   2.33e-05
  1.5026e+03   2.09e-05
  1.5418e+03   1.90e-05
  1.5820e+03   1.72e-05
  1.6233e+03   1.55e-05
  1.6657e+03   1.38e-05
  1.7091e+03   1.25e-05
  1.7537e+03   1.14e-05
  1.7994e+03   1.02e-05
  1.8464e+03   9.20e-06
  1.8945e+03   8.27e-06
  1.9439e+03   7.51e-06
  1.9946e+03   6.79e-06
  2.0467e+03   6.11e-06
  2.1000e+03   5.47e-06
  2.1548e+03   4.96e-06
  2.2110e+03   4.49e-06
  2.2687e+03   4.05e-06
  2.3279e+03   3.63e-06
  2.3886e+03   3.26e-06
  2.4509e+03   2.97e-06
  2.5148e+03   2.69e-06
  2.5804e+03   2.42e-06
  2.6477e+03   2.17e-06
  2.7168e+03   1.98e-06
  2.7876e+03   1.81e-06
  2.8603e+03   1.64e-06
  2.9349e+03   1.49e-06
  3.0115e+03   1.36e-06
  3.0900e+03   1.26e-06
  3.1706e+03   1.16e-06
  3.2533e+03   1.07e-06
  3.3382e+03   9.81e-07
  3.4253e+03   9.20e-07
  3.5146e+03   8.62e-07
  3.6063e+03   8.07e-07
  3.7003e+03   7.54e-07
  3.7969e+03   7.11e-07
  3.8959e+03   6.76e-07
  3.9975e+03   6.43e-07
  4.1018e+03   6.10e-07
  4.2088e+03   5.80e-07
  4.3185e+03   5.57e-07
  4.4312e+03   5.34e-07
  4.5467e+03   5.13e-07
  4.6653e+03   4.92e-07
  4.7870e+03   4.71e-07
  4.9119e+03   4.52e-07
  5.0400e+03   4.33e-07
