#  E [GeV]   # per interaction  [GeV^{-1}]
  3.0000e+01   4.70e-01
  3.0782e+01   4.53e-01
  3.1585e+01   4.36e-01
  3.2409e+01   4.19e-01
  3.3255e+01   4.04e-01
  3.4122e+01   3.88e-01
  3.5012e+01   3.74e-01
  3.5925e+01   3.59e-01
  3.6862e+01   3.45e-01
  3.7824e+01   3.32e-01
  3.8810e+01   3.19e-01
  3.9822e+01   3.07e-01
  4.0861e+01   2.95e-01
  4.1927e+01   2.83e-01
  4.3021e+01   2.72e-01
  4.4143e+01   2.61e-01
  4.5294e+01   2.50e-01
  4.6475e+01   2.40e-01
  4.7688e+01   2.31e-01
  4.8931e+01   2.21e-01
  5.0208e+01   2.12e-01
  5.1517e+01   2.03e-01
  5.2861e+01   1.95e-01
  5.4240e+01   1.87e-01
  5.5654e+01   1.79e-01
  5.7106e+01   1.71e-01
  5.8596e+01   1.64e-01
  6.0124e+01   1.57e-01
  6.1692e+01   1.51e-01
  6.3301e+01   1.44e-01
  6.4952e+01   1.38e-01
  6.6647e+01   1.32e-01
  6.8385e+01   1.26e-01
  7.0169e+01   1.21e-01
  7.1999e+01   1.15e-01
  7.3877e+01   1.10e-01
  7.5804e+01   1.05e-01
  7.7781e+01   1.01e-01
  7.9810e+01   9.61e-02
  8.1891e+01   9.18e-02
  8.4027e+01   8.76e-02
  8.6219e+01   8.36e-02
  8.8468e+01   7.97e-02
  9.0775e+01   7.60e-02
  9.3143e+01   7.25e-02
  9.5572e+01   6.91e-02
  9.8065e+01   6.58e-02
  1.0062e+02   6.27e-02
  1.0325e+02   5.97e-02
  1.0594e+02   5.68e-02
  1.0870e+02   5.41e-02
  1.1154e+02   5.14e-02
  1.1445e+02   4.89e-02
  1.1743e+02   4.64e-02
  1.2050e+02   4.41e-02
  1.2364e+02   4.19e-02
  1.2686e+02   3.97e-02
  1.3017e+02   3.77e-02
  1.3357e+02   3.57e-02
  1.3705e+02   3.39e-02
  1.4063e+02   3.21e-02
  1.4429e+02   3.04e-02
  1.4806e+02   2.87e-02
  1.5192e+02   2.72e-02
  1.5588e+02   2.57e-02
  1.5995e+02   2.43e-02
  1.6412e+02   2.29e-02
  1.6840e+02   2.17e-02
  1.7279e+02   2.05e-02
  1.7730e+02   1.93e-02
  1.8193e+02   1.82e-02
  1.8667e+02   1.71e-02
  1.9154e+02   1.61e-02
  1.9654e+02   1.52e-02
  2.0166e+02   1.43e-02
  2.0692e+02   1.34e-02
  2.1232e+02   1.26e-02
  2.1786e+02   1.18e-02
  2.2354e+02   1.11e-02
  2.2937e+02   1.04e-02
  2.3535e+02   9.74e-03
  2.4149e+02   9.12e-03
  2.4779e+02   8.53e-03
  2.5425e+02   7.97e-03
  2.6088e+02   7.43e-03
  2.6769e+02   6.94e-03
  2.7467e+02   6.47e-03
  2.8184e+02   6.03e-03
  2.8919e+02   5.60e-03
  2.9673e+02   5.21e-03
  3.0447e+02   4.85e-03
  3.1241e+02   4.50e-03
  3.2056e+02   4.17e-03
  3.2892e+02   3.86e-03
  3.3750e+02   3.58e-03
  3.4630e+02   3.32e-03
  3.5533e+02   3.07e-03
  3.6460e+02   2.83e-03
  3.7411e+02   2.61e-03
  3.8387e+02   2.41e-03
  3.9388e+02   2.22e-03
  4.0416e+02   2.04e-03
  4.1470e+02   1.88e-03
  4.2551e+02   1.73e-03
  4.3661e+02   1.59e-03
  4.4800e+02   1.46e-03
  4.5969e+02   1.33e-03
  4.7168e+02   1.22e-03
  4.8398e+02   1.12e-03
  4.9660e+02   1.02e-03
  5.0956e+02   9.31e-04
  5.2285e+02   8.46e-04
  5.3648e+02   7.73e-04
  5.5048e+02   7.05e-04
  5.6483e+02   6.41e-04
  5.7957e+02   5.81e-04
  5.9468e+02   5.28e-04
  6.1020e+02   4.80e-04
  6.2611e+02   4.36e-04
  6.4244e+02   3.94e-04
  6.5920e+02   3.55e-04
  6.7639e+02   3.23e-04
  6.9403e+02   2.92e-04
  7.1214e+02   2.64e-04
  7.3071e+02   2.37e-04
  7.4977e+02   2.14e-04
  7.6933e+02   1.94e-04
  7.8939e+02   1.75e-04
  8.0998e+02   1.57e-04
  8.3111e+02   1.41e-04
  8.5279e+02   1.27e-04
  8.7503e+02   1.15e-04
  8.9785e+02   1.03e-04
  9.2127e+02   9.20e-05
  9.4530e+02   8.27e-05
  9.6996e+02   7.45e-05
  9.9526e+02   6.69e-05
  1.0212e+03   5.97e-05
  1.0479e+03   5.33e-05
  1.0752e+03   4.80e-05
  1.1032e+03   4.31e-05
  1.1320e+03   3.85e-05
  1.1615e+03   3.43e-05
  1.1918e+03   3.08e-05
  1.2229e+03   2.77e-05
  1.2548e+03   2.48e-05
  1.2875e+03   2.21e-05
  1.3211e+03   1.97e-05
  1.3556e+03   1.77e-05
  1.3909e+03   1.59e-05
  1.4272e+03   1.42e-05
  1.4644e+03   1.26e-05
  1.5026e+03   1.14e-05
  1.5418e+03   1.02e-05
  1.5820e+03   9.17e-06
  1.6233e+03   8.18e-06
  1.6657e+03   7.31e-06
  1.7091e+03   6.61e-06
  1.7537e+03   5.95e-06
  1.7994e+03   5.34e-06
  1.8464e+03   4.75e-06
  1.8945e+03   4.31e-06
  1.9439e+03   3.91e-06
  1.9946e+03   3.53e-06
  2.0467e+03   3.17e-06
  2.1000e+03   2.86e-06
  2.1548e+03   2.61e-06
  2.2110e+03   2.37e-06
  2.2687e+03   2.15e-06
  2.3279e+03   1.94e-06
  2.3886e+03   1.78e-06
  2.4509e+03   1.63e-06
  2.5148e+03   1.49e-06
  2.5804e+03   1.36e-06
  2.6477e+03   1.24e-06
  2.7168e+03   1.15e-06
  2.7876e+03   1.05e-06
  2.8603e+03   9.67e-07
  2.9349e+03   8.84e-07
  3.0115e+03   8.19e-07
  3.0900e+03   7.58e-07
  3.1706e+03   7.01e-07
  3.2533e+03   6.45e-07
  3.3382e+03   5.97e-07
  3.4253e+03   5.54e-07
  3.5146e+03   5.13e-07
  3.6063e+03   4.74e-07
  3.7003e+03   4.37e-07
  3.7969e+03   4.03e-07
  3.8959e+03   3.72e-07
  3.9975e+03   3.42e-07
  4.1018e+03   3.13e-07
  4.2088e+03   2.87e-07
  4.3185e+03   2.62e-07
  4.4312e+03   2.39e-07
  4.5467e+03   2.17e-07
  4.6653e+03   1.96e-07
  4.7870e+03   1.81e-07
  4.9119e+03   1.67e-07
  5.0400e+03   1.53e-07
