#  E [MeV]   Flux [# cm^{-2} s^{-1}  MeV^{-1}]
  3.0000e+04   9.02e-19
  3.0589e+04   8.74e-19
  3.1190e+04   8.46e-19
  3.1803e+04   8.19e-19
  3.2428e+04   7.92e-19
  3.3065e+04   7.67e-19
  3.3714e+04   7.42e-19
  3.4376e+04   7.17e-19
  3.5052e+04   6.94e-19
  3.5740e+04   6.71e-19
  3.6442e+04   6.48e-19
  3.7158e+04   6.27e-19
  3.7888e+04   6.06e-19
  3.8632e+04   5.85e-19
  3.9391e+04   5.65e-19
  4.0165e+04   5.46e-19
  4.0954e+04   5.27e-19
  4.1758e+04   5.09e-19
  4.2579e+04   4.91e-19
  4.3415e+04   4.74e-19
  4.4268e+04   4.57e-19
  4.5138e+04   4.41e-19
  4.6024e+04   4.25e-19
  4.6928e+04   4.10e-19
  4.7850e+04   3.95e-19
  4.8790e+04   3.81e-19
  4.9749e+04   3.67e-19
  5.0726e+04   3.53e-19
  5.1722e+04   3.40e-19
  5.2738e+04   3.28e-19
  5.3774e+04   3.15e-19
  5.4831e+04   3.04e-19
  5.5908e+04   2.92e-19
  5.7006e+04   2.81e-19
  5.8126e+04   2.70e-19
  5.9268e+04   2.60e-19
  6.0432e+04   2.50e-19
  6.1619e+04   2.40e-19
  6.2829e+04   2.31e-19
  6.4064e+04   2.22e-19
  6.5322e+04   2.13e-19
  6.6605e+04   2.04e-19
  6.7913e+04   1.96e-19
  6.9248e+04   1.88e-19
  7.0608e+04   1.80e-19
  7.1995e+04   1.73e-19
  7.3409e+04   1.66e-19
  7.4851e+04   1.59e-19
  7.6321e+04   1.52e-19
  7.7821e+04   1.46e-19
  7.9349e+04   1.40e-19
  8.0908e+04   1.34e-19
  8.2497e+04   1.28e-19
  8.4118e+04   1.22e-19
  8.5770e+04   1.17e-19
  8.7455e+04   1.12e-19
  8.9173e+04   1.07e-19
  9.0925e+04   1.02e-19
  9.2711e+04   9.74e-20
  9.4532e+04   9.30e-20
  9.6389e+04   8.87e-20
  9.8283e+04   8.45e-20
  1.0021e+05   8.07e-20
  1.0218e+05   7.69e-20
  1.0419e+05   7.33e-20
  1.0624e+05   6.98e-20
  1.0832e+05   6.64e-20
  1.1045e+05   6.32e-20
  1.1262e+05   6.02e-20
  1.1483e+05   5.73e-20
  1.1709e+05   5.45e-20
  1.1939e+05   5.17e-20
  1.2173e+05   4.91e-20
  1.2412e+05   4.65e-20
  1.2656e+05   4.42e-20
  1.2905e+05   4.20e-20
  1.3158e+05   3.99e-20
  1.3417e+05   3.78e-20
  1.3680e+05   3.57e-20
  1.3949e+05   3.38e-20
  1.4223e+05   3.20e-20
  1.4503e+05   3.03e-20
  1.4787e+05   2.87e-20
  1.5078e+05   2.71e-20
  1.5374e+05   2.55e-20
  1.5676e+05   2.40e-20
  1.5984e+05   2.27e-20
  1.6298e+05   2.15e-20
  1.6618e+05   2.02e-20
  1.6945e+05   1.91e-20
  1.7278e+05   1.79e-20
  1.7617e+05   1.68e-20
  1.7963e+05   1.59e-20
  1.8316e+05   1.49e-20
  1.8676e+05   1.40e-20
  1.9042e+05   1.32e-20
  1.9417e+05   1.23e-20
  1.9798e+05   1.16e-20
  2.0187e+05   1.09e-20
  2.0583e+05   1.02e-20
  2.0988e+05   9.57e-21
  2.1400e+05   8.94e-21
  2.1820e+05   8.34e-21
  2.2249e+05   7.79e-21
  2.2686e+05   7.31e-21
  2.3132e+05   6.84e-21
  2.3586e+05   6.39e-21
  2.4049e+05   5.96e-21
  2.4522e+05   5.54e-21
  2.5004e+05   5.16e-21
  2.5495e+05   4.82e-21
  2.5996e+05   4.50e-21
  2.6506e+05   4.19e-21
  2.7027e+05   3.89e-21
  2.7558e+05   3.60e-21
  2.8099e+05   3.34e-21
  2.8651e+05   3.11e-21
  2.9214e+05   2.90e-21
  2.9788e+05   2.68e-21
  3.0373e+05   2.48e-21
  3.0970e+05   2.28e-21
  3.1578e+05   2.11e-21
  3.2198e+05   1.96e-21
  3.2831e+05   1.82e-21
  3.3476e+05   1.68e-21
  3.4133e+05   1.54e-21
  3.4804e+05   1.41e-21
  3.5487e+05   1.31e-21
  3.6185e+05   1.21e-21
  3.6895e+05   1.12e-21
  3.7620e+05   1.03e-21
  3.8359e+05   9.41e-22
  3.9113e+05   8.57e-22
  3.9881e+05   7.91e-22
  4.0664e+05   7.30e-22
  4.1463e+05   6.71e-22
  4.2278e+05   6.15e-22
  4.3108e+05   5.61e-22
  4.3955e+05   5.09e-22
  4.4818e+05   4.68e-22
  4.5699e+05   4.31e-22
  4.6596e+05   3.95e-22
  4.7512e+05   3.61e-22
  4.8445e+05   3.27e-22
  4.9397e+05   2.96e-22
  5.0367e+05   2.72e-22
  5.1356e+05   2.49e-22
  5.2365e+05   2.28e-22
  5.3394e+05   2.07e-22
  5.4443e+05   1.87e-22
  5.5512e+05   1.68e-22
  5.6603e+05   1.55e-22
  5.7715e+05   1.41e-22
  5.8848e+05   1.29e-22
  6.0004e+05   1.16e-22
  6.1183e+05   1.05e-22
  6.2385e+05   9.36e-23
  6.3610e+05   8.59e-23
  6.4860e+05   7.84e-23
  6.6134e+05   7.13e-23
  6.7433e+05   6.44e-23
  6.8758e+05   5.78e-23
  7.0108e+05   5.18e-23
  7.1486e+05   4.76e-23
  7.2890e+05   4.35e-23
  7.4322e+05   3.95e-23
  7.5782e+05   3.58e-23
  7.7270e+05   3.21e-23
  7.8788e+05   2.89e-23
  8.0336e+05   2.66e-23
  8.1914e+05   2.44e-23
  8.3523e+05   2.22e-23
  8.5164e+05   2.02e-23
  8.6837e+05   1.82e-23
  8.8542e+05   1.65e-23
  9.0282e+05   1.53e-23
  9.2055e+05   1.41e-23
  9.3863e+05   1.30e-23
  9.5707e+05   1.19e-23
  9.7587e+05   1.09e-23
  9.9504e+05   1.00e-23
  1.0146e+06   9.39e-24
  1.0345e+06   8.75e-24
  1.0548e+06   8.14e-24
  1.0756e+06   7.55e-24
  1.0967e+06   6.98e-24
  1.1182e+06   6.51e-24
  1.1402e+06   6.11e-24
  1.1626e+06   5.73e-24
  1.1854e+06   5.36e-24
  1.2087e+06   5.00e-24
  1.2325e+06   4.66e-24
  1.2567e+06   4.36e-24
  1.2814e+06   4.09e-24
  1.3065e+06   3.82e-24
  1.3322e+06   3.57e-24
  1.3584e+06   3.33e-24
  1.3851e+06   3.09e-24
  1.4123e+06   2.92e-24
  1.4400e+06   2.77e-24
