#  E [MeV]   Flux [# cm^{-2} s^{-1}  MeV^{-1}]
  3.0000e+04   9.26e-20
  3.1123e+04   8.86e-20
  3.2288e+04   8.47e-20
  3.3497e+04   8.10e-20
  3.4751e+04   7.74e-20
  3.6051e+04   7.40e-20
  3.7401e+04   7.07e-20
  3.8801e+04   6.76e-20
  4.0253e+04   6.45e-20
  4.1760e+04   6.17e-20
  4.3324e+04   5.89e-20
  4.4945e+04   5.62e-20
  4.6628e+04   5.37e-20
  4.8373e+04   5.12e-20
  5.0184e+04   4.89e-20
  5.2063e+04   4.67e-20
  5.4011e+04   4.45e-20
  5.6033e+04   4.25e-20
  5.8131e+04   4.05e-20
  6.0307e+04   3.86e-20
  6.2564e+04   3.68e-20
  6.4906e+04   3.51e-20
  6.7336e+04   3.34e-20
  6.9857e+04   3.19e-20
  7.2472e+04   3.03e-20
  7.5184e+04   2.89e-20
  7.7999e+04   2.75e-20
  8.0919e+04   2.62e-20
  8.3948e+04   2.49e-20
  8.7090e+04   2.37e-20
  9.0350e+04   2.26e-20
  9.3732e+04   2.15e-20
  9.7241e+04   2.04e-20
  1.0088e+05   1.94e-20
  1.0466e+05   1.85e-20
  1.0858e+05   1.75e-20
  1.1264e+05   1.67e-20
  1.1686e+05   1.58e-20
  1.2123e+05   1.50e-20
  1.2577e+05   1.43e-20
  1.3048e+05   1.35e-20
  1.3536e+05   1.28e-20
  1.4043e+05   1.22e-20
  1.4568e+05   1.15e-20
  1.5114e+05   1.09e-20
  1.5680e+05   1.03e-20
  1.6266e+05   9.80e-21
  1.6875e+05   9.27e-21
  1.7507e+05   8.77e-21
  1.8162e+05   8.30e-21
  1.8842e+05   7.84e-21
  1.9548e+05   7.41e-21
  2.0279e+05   6.99e-21
  2.1039e+05   6.60e-21
  2.1826e+05   6.22e-21
  2.2643e+05   5.87e-21
  2.3491e+05   5.53e-21
  2.4370e+05   5.20e-21
  2.5282e+05   4.90e-21
  2.6229e+05   4.60e-21
  2.7211e+05   4.33e-21
  2.8229e+05   4.06e-21
  2.9286e+05   3.81e-21
  3.0382e+05   3.57e-21
  3.1519e+05   3.34e-21
  3.2699e+05   3.13e-21
  3.3923e+05   2.92e-21
  3.5193e+05   2.73e-21
  3.6511e+05   2.55e-21
  3.7877e+05   2.38e-21
  3.9295e+05   2.21e-21
  4.0766e+05   2.06e-21
  4.2292e+05   1.92e-21
  4.3875e+05   1.78e-21
  4.5518e+05   1.65e-21
  4.7222e+05   1.53e-21
  4.8989e+05   1.42e-21
  5.0823e+05   1.32e-21
  5.2726e+05   1.22e-21
  5.4699e+05   1.13e-21
  5.6747e+05   1.04e-21
  5.8871e+05   9.62e-22
  6.1075e+05   8.88e-22
  6.3361e+05   8.19e-22
  6.5733e+05   7.54e-22
  6.8194e+05   6.95e-22
  7.0746e+05   6.39e-22
  7.3395e+05   5.88e-22
  7.6142e+05   5.41e-22
  7.8992e+05   4.97e-22
  8.1949e+05   4.56e-22
  8.5017e+05   4.19e-22
  8.8199e+05   3.84e-22
  9.1501e+05   3.53e-22
  9.4926e+05   3.23e-22
  9.8479e+05   2.96e-22
  1.0217e+06   2.72e-22
  1.0599e+06   2.49e-22
  1.0996e+06   2.28e-22
  1.1407e+06   2.08e-22
  1.1834e+06   1.90e-22
  1.2277e+06   1.74e-22
  1.2737e+06   1.59e-22
  1.3214e+06   1.46e-22
  1.3708e+06   1.33e-22
  1.4222e+06   1.21e-22
  1.4754e+06   1.11e-22
  1.5306e+06   1.01e-22
  1.5879e+06   9.23e-23
  1.6474e+06   8.42e-23
  1.7090e+06   7.67e-23
  1.7730e+06   6.99e-23
  1.8394e+06   6.36e-23
  1.9082e+06   5.79e-23
  1.9797e+06   5.27e-23
  2.0538e+06   4.79e-23
  2.1306e+06   4.34e-23
  2.2104e+06   3.94e-23
  2.2931e+06   3.57e-23
  2.3790e+06   3.23e-23
  2.4680e+06   2.92e-23
  2.5604e+06   2.64e-23
  2.6563e+06   2.38e-23
  2.7557e+06   2.15e-23
  2.8589e+06   1.93e-23
  2.9659e+06   1.73e-23
  3.0769e+06   1.56e-23
  3.1921e+06   1.40e-23
  3.3116e+06   1.25e-23
  3.4355e+06   1.12e-23
  3.5641e+06   9.99e-24
  3.6976e+06   8.88e-24
  3.8360e+06   7.89e-24
  3.9796e+06   7.02e-24
  4.1285e+06   6.21e-24
  4.2831e+06   5.48e-24
  4.4434e+06   4.84e-24
  4.6097e+06   4.25e-24
  4.7823e+06   3.71e-24
  4.9613e+06   3.26e-24
  5.1470e+06   2.85e-24
  5.3397e+06   2.46e-24
  5.5396e+06   2.15e-24
  5.7470e+06   1.86e-24
  5.9621e+06   1.59e-24
  6.1853e+06   1.38e-24
  6.4168e+06   1.18e-24
  6.6570e+06   1.00e-24
  6.9062e+06   8.55e-25
  7.1647e+06   7.26e-25
  7.4329e+06   6.09e-25
  7.7112e+06   5.13e-25
  7.9998e+06   4.30e-25
  8.2993e+06   3.56e-25
  8.6100e+06   2.95e-25
  8.9323e+06   2.43e-25
  9.2666e+06   1.98e-25
  9.6135e+06   1.60e-25
  9.9734e+06   1.30e-25
  1.0347e+07   1.04e-25
  1.0734e+07   8.20e-26
  1.1136e+07   6.50e-26
  1.1553e+07   5.07e-26
  1.1985e+07   3.88e-26
  1.2434e+07   2.99e-26
  1.2899e+07   2.26e-26
  1.3382e+07   1.66e-26
  1.3883e+07   1.23e-26
  1.4403e+07   8.91e-27
  1.4942e+07   6.26e-27
  1.5501e+07   4.37e-27
  1.6081e+07   2.98e-27
  1.6683e+07   1.95e-27
  1.7308e+07   1.26e-27
  1.7956e+07   7.88e-28
  1.8628e+07   4.70e-28
  1.9325e+07   2.70e-28
  2.0049e+07   1.49e-28
  2.0799e+07   7.66e-29
  2.1578e+07   3.71e-29
  2.2386e+07   1.67e-29
  2.3224e+07   6.84e-30
  2.4093e+07   2.52e-30
  2.4995e+07   8.27e-31
  2.5930e+07   2.34e-31
  2.6901e+07   5.56e-32
  2.7908e+07   1.09e-32
  2.8953e+07   1.68e-33
  3.0037e+07   1.93e-34
  3.1161e+07   1.59e-35
  3.2327e+07   8.64e-37
  3.3537e+07   2.84e-38
  3.4793e+07   5.05e-40
  3.6095e+07   4.24e-42
  3.7446e+07   1.41e-44
  3.8848e+07   1.49e-47
  4.0302e+07   3.76e-51
  4.1811e+07   1.56e-55
  4.3376e+07   6.74e-61
  4.5000e+07   1.04e-66
