#  E [MeV]   Flux [# cm^{-2} s^{-1}  MeV^{-1}]
  3.0000e+04   1.10e-24
  3.1051e+04   1.06e-24
  3.2139e+04   1.02e-24
  3.3266e+04   9.80e-25
  3.4432e+04   9.43e-25
  3.5638e+04   9.07e-25
  3.6887e+04   8.73e-25
  3.8180e+04   8.40e-25
  3.9518e+04   8.08e-25
  4.0903e+04   7.77e-25
  4.2336e+04   7.47e-25
  4.3820e+04   7.19e-25
  4.5355e+04   6.91e-25
  4.6945e+04   6.64e-25
  4.8590e+04   6.38e-25
  5.0293e+04   6.13e-25
  5.2055e+04   5.89e-25
  5.3879e+04   5.66e-25
  5.5767e+04   5.44e-25
  5.7722e+04   5.22e-25
  5.9745e+04   5.02e-25
  6.1838e+04   4.82e-25
  6.4005e+04   4.62e-25
  6.6248e+04   4.44e-25
  6.8570e+04   4.26e-25
  7.0973e+04   4.09e-25
  7.3460e+04   3.92e-25
  7.6034e+04   3.76e-25
  7.8699e+04   3.61e-25
  8.1457e+04   3.46e-25
  8.4311e+04   3.31e-25
  8.7266e+04   3.18e-25
  9.0324e+04   3.04e-25
  9.3490e+04   2.91e-25
  9.6766e+04   2.79e-25
  1.0016e+05   2.67e-25
  1.0367e+05   2.55e-25
  1.0730e+05   2.44e-25
  1.1106e+05   2.34e-25
  1.1495e+05   2.24e-25
  1.1898e+05   2.14e-25
  1.2315e+05   2.04e-25
  1.2747e+05   1.95e-25
  1.3193e+05   1.86e-25
  1.3656e+05   1.78e-25
  1.4134e+05   1.70e-25
  1.4629e+05   1.62e-25
  1.5142e+05   1.55e-25
  1.5673e+05   1.47e-25
  1.6222e+05   1.41e-25
  1.6790e+05   1.34e-25
  1.7379e+05   1.28e-25
  1.7988e+05   1.21e-25
  1.8618e+05   1.16e-25
  1.9271e+05   1.10e-25
  1.9946e+05   1.05e-25
  2.0645e+05   9.93e-26
  2.1369e+05   9.44e-26
  2.2117e+05   8.96e-26
  2.2892e+05   8.50e-26
  2.3695e+05   8.06e-26
  2.4525e+05   7.65e-26
  2.5385e+05   7.25e-26
  2.6274e+05   6.86e-26
  2.7195e+05   6.50e-26
  2.8148e+05   6.15e-26
  2.9134e+05   5.81e-26
  3.0155e+05   5.50e-26
  3.1212e+05   5.19e-26
  3.2306e+05   4.90e-26
  3.3438e+05   4.62e-26
  3.4610e+05   4.36e-26
  3.5823e+05   4.11e-26
  3.7078e+05   3.87e-26
  3.8377e+05   3.64e-26
  3.9722e+05   3.43e-26
  4.1114e+05   3.22e-26
  4.2555e+05   3.03e-26
  4.4046e+05   2.84e-26
  4.5590e+05   2.67e-26
  4.7188e+05   2.50e-26
  4.8841e+05   2.34e-26
  5.0553e+05   2.20e-26
  5.2324e+05   2.06e-26
  5.4158e+05   1.92e-26
  5.6056e+05   1.80e-26
  5.8020e+05   1.68e-26
  6.0054e+05   1.57e-26
  6.2158e+05   1.47e-26
  6.4337e+05   1.37e-26
  6.6591e+05   1.28e-26
  6.8925e+05   1.19e-26
  7.1340e+05   1.11e-26
  7.3840e+05   1.03e-26
  7.6428e+05   9.61e-27
  7.9106e+05   8.95e-27
  8.1878e+05   8.32e-27
  8.4748e+05   7.73e-27
  8.7718e+05   7.18e-27
  9.0792e+05   6.67e-27
  9.3973e+05   6.19e-27
  9.7267e+05   5.75e-27
  1.0068e+06   5.33e-27
  1.0420e+06   4.95e-27
  1.0785e+06   4.58e-27
  1.1163e+06   4.25e-27
  1.1555e+06   3.94e-27
  1.1960e+06   3.65e-27
  1.2379e+06   3.38e-27
  1.2813e+06   3.13e-27
  1.3262e+06   2.89e-27
  1.3726e+06   2.67e-27
  1.4207e+06   2.47e-27
  1.4705e+06   2.29e-27
  1.5220e+06   2.11e-27
  1.5754e+06   1.95e-27
  1.6306e+06   1.80e-27
  1.6877e+06   1.66e-27
  1.7469e+06   1.53e-27
  1.8081e+06   1.41e-27
  1.8715e+06   1.30e-27
  1.9370e+06   1.20e-27
  2.0049e+06   1.11e-27
  2.0752e+06   1.02e-27
  2.1479e+06   9.36e-28
  2.2232e+06   8.61e-28
  2.3011e+06   7.92e-28
  2.3817e+06   7.27e-28
  2.4652e+06   6.67e-28
  2.5516e+06   6.12e-28
  2.6410e+06   5.61e-28
  2.7336e+06   5.13e-28
  2.8294e+06   4.70e-28
  2.9285e+06   4.30e-28
  3.0311e+06   3.92e-28
  3.1374e+06   3.59e-28
  3.2473e+06   3.27e-28
  3.3611e+06   2.98e-28
  3.4789e+06   2.71e-28
  3.6008e+06   2.47e-28
  3.7270e+06   2.25e-28
  3.8576e+06   2.03e-28
  3.9928e+06   1.85e-28
  4.1327e+06   1.68e-28
  4.2775e+06   1.51e-28
  4.4274e+06   1.37e-28
  4.5826e+06   1.24e-28
  4.7432e+06   1.12e-28
  4.9094e+06   1.00e-28
  5.0815e+06   9.06e-29
  5.2595e+06   8.14e-29
  5.4438e+06   7.28e-29
  5.6346e+06   6.54e-29
  5.8321e+06   5.86e-29
  6.0365e+06   5.22e-29
  6.2480e+06   4.66e-29
  6.4670e+06   4.17e-29
  6.6936e+06   3.70e-29
  6.9282e+06   3.28e-29
  7.1709e+06   2.92e-29
  7.4222e+06   2.59e-29
  7.6823e+06   2.28e-29
  7.9516e+06   2.03e-29
  8.2302e+06   1.79e-29
  8.5186e+06   1.57e-29
  8.8172e+06   1.38e-29
  9.1262e+06   1.22e-29
  9.4460e+06   1.07e-29
  9.7770e+06   9.34e-30
  1.0120e+07   8.21e-30
  1.0474e+07   7.17e-30
  1.0841e+07   6.22e-30
  1.1221e+07   5.45e-30
  1.1614e+07   4.75e-30
  1.2022e+07   4.11e-30
  1.2443e+07   3.57e-30
  1.2879e+07   3.10e-30
  1.3330e+07   2.67e-30
  1.3797e+07   2.29e-30
  1.4281e+07   1.98e-30
  1.4781e+07   1.69e-30
  1.5299e+07   1.43e-30
  1.5835e+07   1.21e-30
  1.6390e+07   1.02e-30
  1.6965e+07   8.43e-31
  1.7559e+07   6.97e-31
  1.8175e+07   5.75e-31
  1.8812e+07   4.64e-31
  1.9471e+07   3.68e-31
  2.0153e+07   2.93e-31
  2.0859e+07   2.26e-31
  2.1590e+07   1.68e-31
  2.2347e+07   1.29e-31
  2.3130e+07   9.45e-32
  2.3941e+07   6.50e-32
  2.4780e+07   4.67e-32
  2.5648e+07   3.31e-32
  2.6547e+07   2.05e-32
  2.7477e+07   1.13e-32
  2.8440e+07   5.58e-33
