#  E [MeV]   Flux [# cm^{-2} s^{-1}  MeV^{-1}]
  3.0000e+04   1.57e-19
  3.0675e+04   1.51e-19
  3.1366e+04   1.46e-19
  3.2072e+04   1.40e-19
  3.2794e+04   1.35e-19
  3.3533e+04   1.30e-19
  3.4288e+04   1.25e-19
  3.5060e+04   1.21e-19
  3.5849e+04   1.16e-19
  3.6656e+04   1.12e-19
  3.7482e+04   1.08e-19
  3.8326e+04   1.04e-19
  3.9188e+04   9.99e-20
  4.0071e+04   9.61e-20
  4.0973e+04   9.24e-20
  4.1896e+04   8.89e-20
  4.2839e+04   8.55e-20
  4.3803e+04   8.22e-20
  4.4790e+04   7.90e-20
  4.5798e+04   7.59e-20
  4.6829e+04   7.30e-20
  4.7884e+04   7.01e-20
  4.8962e+04   6.73e-20
  5.0064e+04   6.46e-20
  5.1191e+04   6.20e-20
  5.2344e+04   5.95e-20
  5.3522e+04   5.71e-20
  5.4727e+04   5.48e-20
  5.5960e+04   5.26e-20
  5.7219e+04   5.04e-20
  5.8508e+04   4.83e-20
  5.9825e+04   4.63e-20
  6.1172e+04   4.44e-20
  6.2549e+04   4.25e-20
  6.3958e+04   4.07e-20
  6.5398e+04   3.89e-20
  6.6870e+04   3.72e-20
  6.8376e+04   3.56e-20
  6.9915e+04   3.41e-20
  7.1489e+04   3.26e-20
  7.3099e+04   3.11e-20
  7.4745e+04   2.97e-20
  7.6428e+04   2.84e-20
  7.8148e+04   2.71e-20
  7.9908e+04   2.59e-20
  8.1707e+04   2.47e-20
  8.3547e+04   2.36e-20
  8.5428e+04   2.25e-20
  8.7351e+04   2.15e-20
  8.9318e+04   2.05e-20
  9.1329e+04   1.95e-20
  9.3385e+04   1.86e-20
  9.5488e+04   1.77e-20
  9.7638e+04   1.68e-20
  9.9836e+04   1.60e-20
  1.0208e+05   1.53e-20
  1.0438e+05   1.45e-20
  1.0673e+05   1.38e-20
  1.0914e+05   1.31e-20
  1.1159e+05   1.25e-20
  1.1411e+05   1.18e-20
  1.1667e+05   1.12e-20
  1.1930e+05   1.06e-20
  1.2199e+05   1.01e-20
  1.2473e+05   9.58e-21
  1.2754e+05   9.08e-21
  1.3041e+05   8.60e-21
  1.3335e+05   8.13e-21
  1.3635e+05   7.70e-21
  1.3942e+05   7.29e-21
  1.4256e+05   6.90e-21
  1.4577e+05   6.52e-21
  1.4905e+05   6.15e-21
  1.5241e+05   5.80e-21
  1.5584e+05   5.49e-21
  1.5935e+05   5.18e-21
  1.6294e+05   4.88e-21
  1.6661e+05   4.60e-21
  1.7036e+05   4.33e-21
  1.7419e+05   4.08e-21
  1.7812e+05   3.85e-21
  1.8213e+05   3.62e-21
  1.8623e+05   3.40e-21
  1.9042e+05   3.19e-21
  1.9471e+05   3.00e-21
  1.9909e+05   2.82e-21
  2.0357e+05   2.65e-21
  2.0816e+05   2.49e-21
  2.1284e+05   2.33e-21
  2.1763e+05   2.18e-21
  2.2253e+05   2.05e-21
  2.2755e+05   1.92e-21
  2.3267e+05   1.79e-21
  2.3791e+05   1.67e-21
  2.4326e+05   1.57e-21
  2.4874e+05   1.46e-21
  2.5434e+05   1.37e-21
  2.6007e+05   1.28e-21
  2.6592e+05   1.19e-21
  2.7191e+05   1.10e-21
  2.7803e+05   1.03e-21
  2.8429e+05   9.61e-22
  2.9069e+05   8.93e-22
  2.9724e+05   8.28e-22
  3.0393e+05   7.68e-22
  3.1077e+05   7.15e-22
  3.1777e+05   6.65e-22
  3.2493e+05   6.16e-22
  3.3224e+05   5.70e-22
  3.3972e+05   5.26e-22
  3.4737e+05   4.89e-22
  3.5519e+05   4.53e-22
  3.6319e+05   4.19e-22
  3.7137e+05   3.86e-22
  3.7973e+05   3.55e-22
  3.8828e+05   3.29e-22
  3.9702e+05   3.04e-22
  4.0596e+05   2.80e-22
  4.1510e+05   2.58e-22
  4.2444e+05   2.36e-22
  4.3400e+05   2.18e-22
  4.4377e+05   2.01e-22
  4.5376e+05   1.85e-22
  4.6398e+05   1.70e-22
  4.7443e+05   1.55e-22
  4.8511e+05   1.42e-22
  4.9603e+05   1.31e-22
  5.0720e+05   1.20e-22
  5.1862e+05   1.10e-22
  5.3030e+05   9.98e-23
  5.4224e+05   9.11e-23
  5.5444e+05   8.37e-23
  5.6693e+05   7.66e-23
  5.7969e+05   6.98e-23
  5.9274e+05   6.34e-23
  6.0609e+05   5.76e-23
  6.1974e+05   5.28e-23
  6.3369e+05   4.83e-23
  6.4796e+05   4.40e-23
  6.6255e+05   3.98e-23
  6.7746e+05   3.60e-23
  6.9272e+05   3.30e-23
  7.0831e+05   3.01e-23
  7.2426e+05   2.74e-23
  7.4057e+05   2.48e-23
  7.5724e+05   2.23e-23
  7.7429e+05   2.04e-23
  7.9172e+05   1.86e-23
  8.0955e+05   1.69e-23
  8.2778e+05   1.53e-23
  8.4641e+05   1.38e-23
  8.6547e+05   1.26e-23
  8.8496e+05   1.15e-23
  9.0488e+05   1.05e-23
  9.2526e+05   9.48e-24
  9.4609e+05   8.54e-24
  9.6739e+05   7.78e-24
  9.8917e+05   7.12e-24
  1.0114e+06   6.50e-24
  1.0342e+06   5.92e-24
  1.0575e+06   5.35e-24
  1.0813e+06   4.88e-24
  1.1057e+06   4.49e-24
  1.1305e+06   4.12e-24
  1.1560e+06   3.76e-24
  1.1820e+06   3.43e-24
  1.2086e+06   3.13e-24
  1.2359e+06   2.90e-24
  1.2637e+06   2.67e-24
  1.2921e+06   2.46e-24
  1.3212e+06   2.26e-24
  1.3510e+06   2.07e-24
  1.3814e+06   1.92e-24
  1.4125e+06   1.78e-24
  1.4443e+06   1.65e-24
  1.4768e+06   1.52e-24
  1.5101e+06   1.40e-24
  1.5441e+06   1.31e-24
  1.5788e+06   1.22e-24
  1.6144e+06   1.14e-24
  1.6507e+06   1.06e-24
  1.6879e+06   9.82e-25
  1.7259e+06   9.18e-25
  1.7648e+06   8.59e-25
  1.8045e+06   8.03e-25
  1.8451e+06   7.49e-25
  1.8867e+06   6.98e-25
  1.9291e+06   6.52e-25
  1.9726e+06   6.10e-25
  2.0170e+06   5.70e-25
  2.0624e+06   5.31e-25
  2.1088e+06   4.94e-25
  2.1563e+06   4.60e-25
  2.2049e+06   4.27e-25
  2.2545e+06   3.96e-25
  2.3053e+06   3.66e-25
  2.3572e+06   3.38e-25
  2.4102e+06   3.13e-25
  2.4645e+06   2.94e-25
  2.5200e+06   2.77e-25
