#  E [MeV]   Flux [# cm^{-2} s^{-1}  MeV^{-1}]
  3.0000e+04   1.01e-20
  3.1123e+04   9.70e-21
  3.2288e+04   9.32e-21
  3.3497e+04   8.95e-21
  3.4751e+04   8.60e-21
  3.6051e+04   8.26e-21
  3.7401e+04   7.94e-21
  3.8801e+04   7.62e-21
  4.0253e+04   7.32e-21
  4.1760e+04   7.03e-21
  4.3324e+04   6.74e-21
  4.4945e+04   6.47e-21
  4.6628e+04   6.22e-21
  4.8373e+04   5.96e-21
  5.0184e+04   5.72e-21
  5.2063e+04   5.49e-21
  5.4011e+04   5.27e-21
  5.6033e+04   5.06e-21
  5.8131e+04   4.85e-21
  6.0307e+04   4.65e-21
  6.2564e+04   4.46e-21
  6.4906e+04   4.28e-21
  6.7336e+04   4.10e-21
  6.9857e+04   3.93e-21
  7.2472e+04   3.76e-21
  7.5184e+04   3.61e-21
  7.7999e+04   3.45e-21
  8.0919e+04   3.31e-21
  8.3948e+04   3.17e-21
  8.7090e+04   3.03e-21
  9.0350e+04   2.90e-21
  9.3732e+04   2.78e-21
  9.7241e+04   2.65e-21
  1.0088e+05   2.54e-21
  1.0466e+05   2.43e-21
  1.0858e+05   2.32e-21
  1.1264e+05   2.22e-21
  1.1686e+05   2.12e-21
  1.2123e+05   2.02e-21
  1.2577e+05   1.93e-21
  1.3048e+05   1.84e-21
  1.3536e+05   1.76e-21
  1.4043e+05   1.67e-21
  1.4568e+05   1.60e-21
  1.5114e+05   1.52e-21
  1.5680e+05   1.45e-21
  1.6266e+05   1.38e-21
  1.6875e+05   1.31e-21
  1.7507e+05   1.24e-21
  1.8162e+05   1.18e-21
  1.8842e+05   1.12e-21
  1.9548e+05   1.06e-21
  2.0279e+05   1.01e-21
  2.1039e+05   9.57e-22
  2.1826e+05   9.06e-22
  2.2643e+05   8.58e-22
  2.3491e+05   8.11e-22
  2.4370e+05   7.67e-22
  2.5282e+05   7.24e-22
  2.6229e+05   6.83e-22
  2.7211e+05   6.44e-22
  2.8229e+05   6.06e-22
  2.9286e+05   5.70e-22
  3.0382e+05   5.36e-22
  3.1519e+05   5.03e-22
  3.2699e+05   4.72e-22
  3.3923e+05   4.42e-22
  3.5193e+05   4.14e-22
  3.6511e+05   3.87e-22
  3.7877e+05   3.62e-22
  3.9295e+05   3.38e-22
  4.0766e+05   3.15e-22
  4.2292e+05   2.93e-22
  4.3875e+05   2.73e-22
  4.5518e+05   2.54e-22
  4.7222e+05   2.35e-22
  4.8989e+05   2.18e-22
  5.0823e+05   2.02e-22
  5.2726e+05   1.87e-22
  5.4699e+05   1.73e-22
  5.6747e+05   1.60e-22
  5.8871e+05   1.48e-22
  6.1075e+05   1.37e-22
  6.3361e+05   1.26e-22
  6.5733e+05   1.16e-22
  6.8194e+05   1.07e-22
  7.0746e+05   9.83e-23
  7.3395e+05   9.04e-23
  7.6142e+05   8.31e-23
  7.8992e+05   7.64e-23
  8.1949e+05   7.01e-23
  8.5017e+05   6.44e-23
  8.8199e+05   5.91e-23
  9.1501e+05   5.43e-23
  9.4926e+05   4.98e-23
  9.8479e+05   4.57e-23
  1.0217e+06   4.19e-23
  1.0599e+06   3.85e-23
  1.0996e+06   3.53e-23
  1.1407e+06   3.24e-23
  1.1834e+06   2.97e-23
  1.2277e+06   2.72e-23
  1.2737e+06   2.50e-23
  1.3214e+06   2.29e-23
  1.3708e+06   2.10e-23
  1.4222e+06   1.93e-23
  1.4754e+06   1.77e-23
  1.5306e+06   1.62e-23
  1.5879e+06   1.49e-23
  1.6474e+06   1.36e-23
  1.7090e+06   1.25e-23
  1.7730e+06   1.15e-23
  1.8394e+06   1.05e-23
  1.9082e+06   9.63e-24
  1.9797e+06   8.83e-24
  2.0538e+06   8.09e-24
  2.1306e+06   7.40e-24
  2.2104e+06   6.78e-24
  2.2931e+06   6.19e-24
  2.3790e+06   5.66e-24
  2.4680e+06   5.17e-24
  2.5604e+06   4.71e-24
  2.6563e+06   4.30e-24
  2.7557e+06   3.92e-24
  2.8589e+06   3.56e-24
  2.9659e+06   3.23e-24
  3.0769e+06   2.94e-24
  3.1921e+06   2.66e-24
  3.3116e+06   2.41e-24
  3.4355e+06   2.18e-24
  3.5641e+06   1.97e-24
  3.6976e+06   1.77e-24
  3.8360e+06   1.59e-24
  3.9796e+06   1.43e-24
  4.1285e+06   1.28e-24
  4.2831e+06   1.15e-24
  4.4434e+06   1.02e-24
  4.6097e+06   9.06e-25
  4.7823e+06   8.04e-25
  4.9613e+06   7.11e-25
  5.1470e+06   6.25e-25
  5.3397e+06   5.49e-25
  5.5396e+06   4.81e-25
  5.7470e+06   4.19e-25
  5.9621e+06   3.64e-25
  6.1853e+06   3.15e-25
  6.4168e+06   2.71e-25
  6.6570e+06   2.32e-25
  6.9062e+06   1.98e-25
  7.1647e+06   1.68e-25
  7.4329e+06   1.41e-25
  7.7112e+06   1.19e-25
  7.9998e+06   9.88e-26
  8.2993e+06   8.13e-26
  8.6100e+06   6.69e-26
  8.9323e+06   5.43e-26
  9.2666e+06   4.35e-26
  9.6135e+06   3.48e-26
  9.9734e+06   2.74e-26
  1.0347e+07   2.13e-26
  1.0734e+07   1.64e-26
  1.1136e+07   1.25e-26
  1.1553e+07   9.26e-27
  1.1985e+07   6.80e-27
  1.2434e+07   4.92e-27
  1.2899e+07   3.47e-27
  1.3382e+07   2.39e-27
  1.3883e+07   1.62e-27
  1.4403e+07   1.06e-27
  1.4942e+07   6.74e-28
  1.5501e+07   4.18e-28
  1.6081e+07   2.48e-28
  1.6683e+07   1.40e-28
  1.7308e+07   7.65e-29
  1.7956e+07   3.93e-29
  1.8628e+07   1.88e-29
  1.9325e+07   8.62e-30
  2.0049e+07   3.62e-30
  2.0799e+07   1.37e-30
  2.1578e+07   4.82e-31
  2.2386e+07   1.50e-31
  2.3224e+07   4.03e-32
  2.4093e+07   9.50e-33
  2.4995e+07   1.87e-33
  2.5930e+07   2.96e-34
  2.6901e+07   3.74e-35
  2.7908e+07   3.57e-36
  2.8953e+07   2.41e-37
  3.0037e+07   1.10e-38
  3.1161e+07   3.17e-40
  3.2327e+07   5.11e-42
  3.3537e+07   4.19e-44
  3.4793e+07   1.55e-46
  3.6095e+07   2.08e-49
  3.7446e+07   8.15e-53
  3.8848e+07   7.25e-57
  4.0302e+07   9.80e-62
  4.1811e+07   1.27e-67
  4.3376e+07   4.74e-68
  4.5000e+07   3.38e-68
