#  E [MeV]   Flux [# cm^{-2} s^{-1}  MeV^{-1}]
  3.0000e+04   6.60e-19
  3.0675e+04   6.37e-19
  3.1366e+04   6.15e-19
  3.2072e+04   5.94e-19
  3.2794e+04   5.73e-19
  3.3533e+04   5.53e-19
  3.4288e+04   5.33e-19
  3.5060e+04   5.14e-19
  3.5849e+04   4.96e-19
  3.6656e+04   4.78e-19
  3.7482e+04   4.61e-19
  3.8326e+04   4.44e-19
  3.9188e+04   4.28e-19
  4.0071e+04   4.13e-19
  4.0973e+04   3.97e-19
  4.1896e+04   3.83e-19
  4.2839e+04   3.69e-19
  4.3803e+04   3.55e-19
  4.4790e+04   3.42e-19
  4.5798e+04   3.29e-19
  4.6829e+04   3.16e-19
  4.7884e+04   3.04e-19
  4.8962e+04   2.93e-19
  5.0064e+04   2.81e-19
  5.1191e+04   2.71e-19
  5.2344e+04   2.60e-19
  5.3522e+04   2.50e-19
  5.4727e+04   2.40e-19
  5.5960e+04   2.31e-19
  5.7219e+04   2.22e-19
  5.8508e+04   2.13e-19
  5.9825e+04   2.04e-19
  6.1172e+04   1.96e-19
  6.2549e+04   1.88e-19
  6.3958e+04   1.80e-19
  6.5398e+04   1.73e-19
  6.6870e+04   1.65e-19
  6.8376e+04   1.58e-19
  6.9915e+04   1.52e-19
  7.1489e+04   1.45e-19
  7.3099e+04   1.39e-19
  7.4745e+04   1.33e-19
  7.6428e+04   1.27e-19
  7.8148e+04   1.22e-19
  7.9908e+04   1.16e-19
  8.1707e+04   1.11e-19
  8.3547e+04   1.06e-19
  8.5428e+04   1.02e-19
  8.7351e+04   9.70e-20
  8.9318e+04   9.27e-20
  9.1329e+04   8.85e-20
  9.3385e+04   8.44e-20
  9.5488e+04   8.05e-20
  9.7638e+04   7.67e-20
  9.9836e+04   7.32e-20
  1.0208e+05   6.98e-20
  1.0438e+05   6.65e-20
  1.0673e+05   6.33e-20
  1.0914e+05   6.02e-20
  1.1159e+05   5.74e-20
  1.1411e+05   5.46e-20
  1.1667e+05   5.19e-20
  1.1930e+05   4.94e-20
  1.2199e+05   4.69e-20
  1.2473e+05   4.45e-20
  1.2754e+05   4.23e-20
  1.3041e+05   4.02e-20
  1.3335e+05   3.81e-20
  1.3635e+05   3.61e-20
  1.3942e+05   3.42e-20
  1.4256e+05   3.25e-20
  1.4577e+05   3.08e-20
  1.4905e+05   2.91e-20
  1.5241e+05   2.76e-20
  1.5584e+05   2.61e-20
  1.5935e+05   2.47e-20
  1.6294e+05   2.34e-20
  1.6661e+05   2.21e-20
  1.7036e+05   2.08e-20
  1.7419e+05   1.96e-20
  1.7812e+05   1.86e-20
  1.8213e+05   1.75e-20
  1.8623e+05   1.65e-20
  1.9042e+05   1.56e-20
  1.9471e+05   1.47e-20
  1.9909e+05   1.38e-20
  2.0357e+05   1.30e-20
  2.0816e+05   1.23e-20
  2.1284e+05   1.15e-20
  2.1763e+05   1.08e-20
  2.2253e+05   1.02e-20
  2.2755e+05   9.58e-21
  2.3267e+05   8.99e-21
  2.3791e+05   8.43e-21
  2.4326e+05   7.89e-21
  2.4874e+05   7.41e-21
  2.5434e+05   6.95e-21
  2.6007e+05   6.51e-21
  2.6592e+05   6.09e-21
  2.7191e+05   5.68e-21
  2.7803e+05   5.31e-21
  2.8429e+05   4.98e-21
  2.9069e+05   4.65e-21
  2.9724e+05   4.34e-21
  3.0393e+05   4.04e-21
  3.1077e+05   3.77e-21
  3.1777e+05   3.52e-21
  3.2493e+05   3.28e-21
  3.3224e+05   3.06e-21
  3.3972e+05   2.84e-21
  3.4737e+05   2.64e-21
  3.5519e+05   2.46e-21
  3.6319e+05   2.29e-21
  3.7137e+05   2.13e-21
  3.7973e+05   1.97e-21
  3.8828e+05   1.82e-21
  3.9702e+05   1.70e-21
  4.0596e+05   1.58e-21
  4.1510e+05   1.46e-21
  4.2444e+05   1.35e-21
  4.3400e+05   1.25e-21
  4.4377e+05   1.16e-21
  4.5376e+05   1.07e-21
  4.6398e+05   9.94e-22
  4.7443e+05   9.17e-22
  4.8511e+05   8.43e-22
  4.9603e+05   7.81e-22
  5.0720e+05   7.24e-22
  5.1862e+05   6.68e-22
  5.3030e+05   6.15e-22
  5.4224e+05   5.65e-22
  5.5444e+05   5.21e-22
  5.6693e+05   4.82e-22
  5.7969e+05   4.44e-22
  5.9274e+05   4.09e-22
  6.0609e+05   3.74e-22
  6.1974e+05   3.44e-22
  6.3369e+05   3.18e-22
  6.4796e+05   2.93e-22
  6.6255e+05   2.69e-22
  6.7746e+05   2.46e-22
  6.9272e+05   2.25e-22
  7.0831e+05   2.08e-22
  7.2426e+05   1.92e-22
  7.4057e+05   1.76e-22
  7.5724e+05   1.61e-22
  7.7429e+05   1.47e-22
  7.9172e+05   1.36e-22
  8.0955e+05   1.25e-22
  8.2778e+05   1.15e-22
  8.4641e+05   1.05e-22
  8.6547e+05   9.54e-23
  8.8496e+05   8.80e-23
  9.0488e+05   8.11e-23
  9.2526e+05   7.45e-23
  9.4609e+05   6.82e-23
  9.6739e+05   6.22e-23
  9.8917e+05   5.72e-23
  1.0114e+06   5.28e-23
  1.0342e+06   4.85e-23
  1.0575e+06   4.44e-23
  1.0813e+06   4.05e-23
  1.1057e+06   3.71e-23
  1.1305e+06   3.42e-23
  1.1560e+06   3.14e-23
  1.1820e+06   2.87e-23
  1.2086e+06   2.61e-23
  1.2359e+06   2.39e-23
  1.2637e+06   2.21e-23
  1.2921e+06   2.04e-23
  1.3212e+06   1.87e-23
  1.3510e+06   1.71e-23
  1.3814e+06   1.57e-23
  1.4125e+06   1.46e-23
  1.4443e+06   1.35e-23
  1.4768e+06   1.25e-23
  1.5101e+06   1.15e-23
  1.5441e+06   1.06e-23
  1.5788e+06   9.99e-24
  1.6144e+06   9.39e-24
  1.6507e+06   8.82e-24
  1.6879e+06   8.27e-24
  1.7259e+06   7.75e-24
  1.7648e+06   7.38e-24
  1.8045e+06   7.03e-24
  1.8451e+06   6.70e-24
  1.8867e+06   6.38e-24
  1.9291e+06   6.07e-24
  1.9726e+06   5.85e-24
  2.0170e+06   5.66e-24
  2.0624e+06   5.48e-24
  2.1088e+06   5.30e-24
  2.1563e+06   5.12e-24
  2.2049e+06   4.98e-24
  2.2545e+06   4.85e-24
  2.3053e+06   4.73e-24
  2.3572e+06   4.61e-24
  2.4102e+06   4.50e-24
  2.4645e+06   4.39e-24
  2.5200e+06   4.28e-24
