#  E [MeV]   Flux [# cm^{-2} s^{-1}  MeV^{-1}]
  3.0000e+04   2.76e-20
  3.0943e+04   2.67e-20
  3.1916e+04   2.58e-20
  3.2920e+04   2.49e-20
  3.3955e+04   2.41e-20
  3.5023e+04   2.33e-20
  3.6124e+04   2.25e-20
  3.7260e+04   2.17e-20
  3.8432e+04   2.10e-20
  3.9640e+04   2.02e-20
  4.0887e+04   1.95e-20
  4.2172e+04   1.88e-20
  4.3499e+04   1.82e-20
  4.4866e+04   1.75e-20
  4.6277e+04   1.69e-20
  4.7732e+04   1.63e-20
  4.9233e+04   1.57e-20
  5.0781e+04   1.51e-20
  5.2378e+04   1.46e-20
  5.4025e+04   1.40e-20
  5.5724e+04   1.35e-20
  5.7476e+04   1.30e-20
  5.9284e+04   1.25e-20
  6.1148e+04   1.21e-20
  6.3071e+04   1.16e-20
  6.5054e+04   1.12e-20
  6.7100e+04   1.07e-20
  6.9210e+04   1.03e-20
  7.1386e+04   9.92e-21
  7.3631e+04   9.53e-21
  7.5946e+04   9.16e-21
  7.8334e+04   8.79e-21
  8.0797e+04   8.44e-21
  8.3338e+04   8.10e-21
  8.5959e+04   7.78e-21
  8.8662e+04   7.46e-21
  9.1450e+04   7.15e-21
  9.4325e+04   6.85e-21
  9.7291e+04   6.57e-21
  1.0035e+05   6.29e-21
  1.0351e+05   6.02e-21
  1.0676e+05   5.77e-21
  1.1012e+05   5.52e-21
  1.1358e+05   5.28e-21
  1.1715e+05   5.05e-21
  1.2084e+05   4.82e-21
  1.2464e+05   4.61e-21
  1.2856e+05   4.40e-21
  1.3260e+05   4.21e-21
  1.3677e+05   4.01e-21
  1.4107e+05   3.83e-21
  1.4550e+05   3.65e-21
  1.5008e+05   3.48e-21
  1.5480e+05   3.32e-21
  1.5967e+05   3.16e-21
  1.6469e+05   3.01e-21
  1.6987e+05   2.87e-21
  1.7521e+05   2.73e-21
  1.8072e+05   2.59e-21
  1.8640e+05   2.47e-21
  1.9226e+05   2.34e-21
  1.9831e+05   2.22e-21
  2.0454e+05   2.11e-21
  2.1097e+05   2.00e-21
  2.1761e+05   1.90e-21
  2.2445e+05   1.80e-21
  2.3151e+05   1.71e-21
  2.3879e+05   1.62e-21
  2.4630e+05   1.53e-21
  2.5404e+05   1.45e-21
  2.6203e+05   1.37e-21
  2.7027e+05   1.29e-21
  2.7877e+05   1.22e-21
  2.8753e+05   1.15e-21
  2.9657e+05   1.09e-21
  3.0590e+05   1.02e-21
  3.1552e+05   9.64e-22
  3.2544e+05   9.07e-22
  3.3567e+05   8.54e-22
  3.4623e+05   8.02e-22
  3.5712e+05   7.54e-22
  3.6835e+05   7.07e-22
  3.7993e+05   6.63e-22
  3.9188e+05   6.22e-22
  4.0420e+05   5.83e-22
  4.1691e+05   5.45e-22
  4.3002e+05   5.10e-22
  4.4354e+05   4.77e-22
  4.5749e+05   4.45e-22
  4.7187e+05   4.16e-22
  4.8671e+05   3.88e-22
  5.0202e+05   3.62e-22
  5.1780e+05   3.37e-22
  5.3409e+05   3.13e-22
  5.5088e+05   2.92e-22
  5.6820e+05   2.71e-22
  5.8607e+05   2.52e-22
  6.0450e+05   2.34e-22
  6.2351e+05   2.17e-22
  6.4311e+05   2.01e-22
  6.6334e+05   1.87e-22
  6.8419e+05   1.73e-22
  7.0571e+05   1.60e-22
  7.2790e+05   1.48e-22
  7.5079e+05   1.37e-22
  7.7440e+05   1.26e-22
  7.9875e+05   1.17e-22
  8.2387e+05   1.08e-22
  8.4977e+05   9.94e-23
  8.7649e+05   9.18e-23
  9.0405e+05   8.47e-23
  9.3248e+05   7.80e-23
  9.6180e+05   7.19e-23
  9.9205e+05   6.62e-23
  1.0232e+06   6.10e-23
  1.0554e+06   5.61e-23
  1.0886e+06   5.16e-23
  1.1228e+06   4.75e-23
  1.1581e+06   4.36e-23
  1.1946e+06   4.00e-23
  1.2321e+06   3.68e-23
  1.2709e+06   3.38e-23
  1.3108e+06   3.10e-23
  1.3521e+06   2.84e-23
  1.3946e+06   2.61e-23
  1.4384e+06   2.39e-23
  1.4837e+06   2.19e-23
  1.5303e+06   2.00e-23
  1.5784e+06   1.84e-23
  1.6281e+06   1.68e-23
  1.6793e+06   1.53e-23
  1.7321e+06   1.40e-23
  1.7865e+06   1.28e-23
  1.8427e+06   1.17e-23
  1.9006e+06   1.06e-23
  1.9604e+06   9.73e-24
  2.0221e+06   8.87e-24
  2.0856e+06   8.06e-24
  2.1512e+06   7.32e-24
  2.2189e+06   6.68e-24
  2.2886e+06   6.06e-24
  2.3606e+06   5.49e-24
  2.4348e+06   4.98e-24
  2.5114e+06   4.52e-24
  2.5904e+06   4.09e-24
  2.6718e+06   3.68e-24
  2.7558e+06   3.33e-24
  2.8425e+06   3.01e-24
  2.9319e+06   2.70e-24
  3.0241e+06   2.42e-24
  3.1192e+06   2.18e-24
  3.2173e+06   1.96e-24
  3.3184e+06   1.74e-24
  3.4228e+06   1.56e-24
  3.5304e+06   1.39e-24
  3.6414e+06   1.24e-24
  3.7559e+06   1.10e-24
  3.8740e+06   9.77e-25
  3.9958e+06   8.68e-25
  4.1215e+06   7.66e-25
  4.2511e+06   6.71e-25
  4.3848e+06   5.95e-25
  4.5227e+06   5.24e-25
  4.6649e+06   4.57e-25
  4.8116e+06   3.99e-25
  4.9629e+06   3.50e-25
  5.1189e+06   3.05e-25
  5.2799e+06   2.63e-25
  5.4459e+06   2.28e-25
  5.6171e+06   1.98e-25
  5.7938e+06   1.70e-25
  5.9760e+06   1.44e-25
  6.1639e+06   1.24e-25
  6.3577e+06   1.06e-25
  6.5576e+06   8.97e-26
  6.7638e+06   7.51e-26
  6.9765e+06   6.41e-26
  7.1959e+06   5.40e-26
  7.4222e+06   4.48e-26
  7.6556e+06   3.73e-26
  7.8963e+06   3.13e-26
  8.1446e+06   2.59e-26
  8.4007e+06   2.11e-26
  8.6649e+06   1.74e-26
  8.9373e+06   1.43e-26
  9.2184e+06   1.16e-26
  9.5082e+06   9.17e-27
  9.8072e+06   7.50e-27
  1.0116e+07   6.02e-27
  1.0434e+07   4.73e-27
  1.0762e+07   3.68e-27
  1.1100e+07   2.91e-27
  1.1449e+07   2.25e-27
  1.1809e+07   1.68e-27
  1.2181e+07   1.26e-27
  1.2564e+07   9.39e-28
  1.2959e+07   6.73e-28
  1.3366e+07   4.59e-28
  1.3786e+07   3.22e-28
  1.4220e+07   2.19e-28
