#  E [MeV]   Flux [# cm^{-2} s^{-1}  MeV^{-1}]
  3.0000e+04   2.25e-23
  3.0782e+04   2.17e-23
  3.1585e+04   2.09e-23
  3.2409e+04   2.01e-23
  3.3255e+04   1.94e-23
  3.4122e+04   1.86e-23
  3.5012e+04   1.79e-23
  3.5925e+04   1.73e-23
  3.6862e+04   1.66e-23
  3.7824e+04   1.60e-23
  3.8810e+04   1.54e-23
  3.9822e+04   1.48e-23
  4.0861e+04   1.42e-23
  4.1927e+04   1.36e-23
  4.3021e+04   1.31e-23
  4.4143e+04   1.26e-23
  4.5294e+04   1.21e-23
  4.6475e+04   1.16e-23
  4.7688e+04   1.11e-23
  4.8931e+04   1.07e-23
  5.0208e+04   1.03e-23
  5.1517e+04   9.85e-24
  5.2861e+04   9.45e-24
  5.4240e+04   9.06e-24
  5.5654e+04   8.69e-24
  5.7106e+04   8.33e-24
  5.8596e+04   7.99e-24
  6.0124e+04   7.65e-24
  6.1692e+04   7.33e-24
  6.3301e+04   7.02e-24
  6.4952e+04   6.73e-24
  6.6647e+04   6.44e-24
  6.8385e+04   6.16e-24
  7.0169e+04   5.90e-24
  7.1999e+04   5.65e-24
  7.3877e+04   5.40e-24
  7.5804e+04   5.17e-24
  7.7781e+04   4.94e-24
  7.9810e+04   4.72e-24
  8.1891e+04   4.52e-24
  8.4027e+04   4.32e-24
  8.6219e+04   4.12e-24
  8.8468e+04   3.94e-24
  9.0775e+04   3.76e-24
  9.3143e+04   3.59e-24
  9.5572e+04   3.43e-24
  9.8065e+04   3.27e-24
  1.0062e+05   3.12e-24
  1.0325e+05   2.97e-24
  1.0594e+05   2.83e-24
  1.0870e+05   2.70e-24
  1.1154e+05   2.57e-24
  1.1445e+05   2.45e-24
  1.1743e+05   2.33e-24
  1.2050e+05   2.22e-24
  1.2364e+05   2.11e-24
  1.2686e+05   2.01e-24
  1.3017e+05   1.91e-24
  1.3357e+05   1.81e-24
  1.3705e+05   1.72e-24
  1.4063e+05   1.64e-24
  1.4429e+05   1.55e-24
  1.4806e+05   1.47e-24
  1.5192e+05   1.40e-24
  1.5588e+05   1.32e-24
  1.5995e+05   1.26e-24
  1.6412e+05   1.19e-24
  1.6840e+05   1.13e-24
  1.7279e+05   1.07e-24
  1.7730e+05   1.01e-24
  1.8193e+05   9.56e-25
  1.8667e+05   9.04e-25
  1.9154e+05   8.54e-25
  1.9654e+05   8.06e-25
  2.0166e+05   7.62e-25
  2.0692e+05   7.20e-25
  2.1232e+05   6.79e-25
  2.1786e+05   6.40e-25
  2.2354e+05   6.03e-25
  2.2937e+05   5.69e-25
  2.3535e+05   5.36e-25
  2.4149e+05   5.04e-25
  2.4779e+05   4.74e-25
  2.5425e+05   4.46e-25
  2.6088e+05   4.19e-25
  2.6769e+05   3.94e-25
  2.7467e+05   3.69e-25
  2.8184e+05   3.46e-25
  2.8919e+05   3.25e-25
  2.9673e+05   3.05e-25
  3.0447e+05   2.85e-25
  3.1241e+05   2.66e-25
  3.2056e+05   2.50e-25
  3.2892e+05   2.34e-25
  3.3750e+05   2.18e-25
  3.4630e+05   2.04e-25
  3.5533e+05   1.90e-25
  3.6460e+05   1.78e-25
  3.7411e+05   1.66e-25
  3.8387e+05   1.54e-25
  3.9388e+05   1.43e-25
  4.0416e+05   1.34e-25
  4.1470e+05   1.25e-25
  4.2551e+05   1.16e-25
  4.3661e+05   1.07e-25
  4.4800e+05   9.97e-26
  4.5969e+05   9.27e-26
  4.7168e+05   8.60e-26
  4.8398e+05   7.96e-26
  4.9660e+05   7.35e-26
  5.0956e+05   6.83e-26
  5.2285e+05   6.32e-26
  5.3648e+05   5.84e-26
  5.5048e+05   5.37e-26
  5.6483e+05   4.96e-26
  5.7957e+05   4.59e-26
  5.9468e+05   4.23e-26
  6.1020e+05   3.89e-26
  6.2611e+05   3.57e-26
  6.4244e+05   3.30e-26
  6.5920e+05   3.04e-26
  6.7639e+05   2.79e-26
  6.9403e+05   2.55e-26
  7.1214e+05   2.34e-26
  7.3071e+05   2.15e-26
  7.4977e+05   1.98e-26
  7.6933e+05   1.80e-26
  7.8939e+05   1.65e-26
  8.0998e+05   1.51e-26
  8.3111e+05   1.39e-26
  8.5279e+05   1.26e-26
  8.7503e+05   1.15e-26
  8.9785e+05   1.05e-26
  9.2127e+05   9.62e-27
  9.4530e+05   8.77e-27
  9.6996e+05   7.97e-27
  9.9526e+05   7.22e-27
  1.0212e+06   6.61e-27
  1.0479e+06   6.02e-27
  1.0752e+06   5.46e-27
  1.1032e+06   4.93e-27
  1.1320e+06   4.49e-27
  1.1615e+06   4.09e-27
  1.1918e+06   3.71e-27
  1.2229e+06   3.34e-27
  1.2548e+06   3.02e-27
  1.2875e+06   2.75e-27
  1.3211e+06   2.50e-27
  1.3556e+06   2.26e-27
  1.3909e+06   2.02e-27
  1.4272e+06   1.84e-27
  1.4644e+06   1.67e-27
  1.5026e+06   1.51e-27
  1.5418e+06   1.36e-27
  1.5820e+06   1.23e-27
  1.6233e+06   1.12e-27
  1.6657e+06   1.01e-27
  1.7091e+06   9.14e-28
  1.7537e+06   8.20e-28
  1.7994e+06   7.47e-28
  1.8464e+06   6.80e-28
  1.8945e+06   6.16e-28
  1.9439e+06   5.55e-28
  1.9946e+06   5.02e-28
  2.0467e+06   4.59e-28
  2.1000e+06   4.19e-28
  2.1548e+06   3.80e-28
  2.2110e+06   3.43e-28
  2.2687e+06   3.15e-28
  2.3279e+06   2.89e-28
  2.3886e+06   2.64e-28
  2.4509e+06   2.40e-28
  2.5148e+06   2.20e-28
  2.5804e+06   2.03e-28
  2.6477e+06   1.88e-28
  2.7168e+06   1.72e-28
  2.7876e+06   1.58e-28
  2.8603e+06   1.47e-28
  2.9349e+06   1.36e-28
  3.0115e+06   1.26e-28
  3.0900e+06   1.16e-28
  3.1706e+06   1.08e-28
  3.2533e+06   1.01e-28
  3.3382e+06   9.39e-29
  3.4253e+06   8.74e-29
  3.5146e+06   8.11e-29
  3.6063e+06   7.61e-29
  3.7003e+06   7.12e-29
  3.7969e+06   6.65e-29
  3.8959e+06   6.20e-29
  3.9975e+06   5.78e-29
  4.1018e+06   5.40e-29
  4.2088e+06   5.02e-29
  4.3185e+06   4.67e-29
  4.4312e+06   4.33e-29
  4.5467e+06   4.02e-29
  4.6653e+06   3.72e-29
  4.7870e+06   3.43e-29
  4.9119e+06   3.16e-29
  5.0400e+06   2.94e-29
