#  E [GeV]   # per interaction  [GeV^{-1}]
  3.0000e+01   1.34e+00
  3.1232e+01   1.28e+00
  3.2514e+01   1.22e+00
  3.3849e+01   1.16e+00
  3.5238e+01   1.10e+00
  3.6685e+01   1.05e+00
  3.8191e+01   1.00e+00
  3.9759e+01   9.54e-01
  4.1391e+01   9.08e-01
  4.3090e+01   8.64e-01
  4.4859e+01   8.22e-01
  4.6701e+01   7.83e-01
  4.8618e+01   7.44e-01
  5.0614e+01   7.08e-01
  5.2692e+01   6.73e-01
  5.4855e+01   6.40e-01
  5.7107e+01   6.09e-01
  5.9451e+01   5.78e-01
  6.1892e+01   5.50e-01
  6.4433e+01   5.22e-01
  6.7078e+01   4.96e-01
  6.9832e+01   4.71e-01
  7.2699e+01   4.47e-01
  7.5683e+01   4.24e-01
  7.8790e+01   4.03e-01
  8.2025e+01   3.82e-01
  8.5392e+01   3.63e-01
  8.8898e+01   3.44e-01
  9.2547e+01   3.26e-01
  9.6347e+01   3.09e-01
  1.0030e+02   2.93e-01
  1.0442e+02   2.78e-01
  1.0871e+02   2.63e-01
  1.1317e+02   2.49e-01
  1.1782e+02   2.36e-01
  1.2265e+02   2.23e-01
  1.2769e+02   2.11e-01
  1.3293e+02   2.00e-01
  1.3839e+02   1.89e-01
  1.4407e+02   1.79e-01
  1.4998e+02   1.69e-01
  1.5614e+02   1.60e-01
  1.6255e+02   1.51e-01
  1.6922e+02   1.43e-01
  1.7617e+02   1.35e-01
  1.8340e+02   1.27e-01
  1.9093e+02   1.20e-01
  1.9877e+02   1.13e-01
  2.0693e+02   1.06e-01
  2.1543e+02   1.00e-01
  2.2427e+02   9.44e-02
  2.3348e+02   8.89e-02
  2.4306e+02   8.36e-02
  2.5304e+02   7.86e-02
  2.6343e+02   7.39e-02
  2.7424e+02   6.94e-02
  2.8550e+02   6.51e-02
  2.9722e+02   6.11e-02
  3.0942e+02   5.73e-02
  3.2213e+02   5.36e-02
  3.3535e+02   5.02e-02
  3.4912e+02   4.70e-02
  3.6345e+02   4.39e-02
  3.7837e+02   4.10e-02
  3.9390e+02   3.83e-02
  4.1008e+02   3.58e-02
  4.2691e+02   3.33e-02
  4.4444e+02   3.11e-02
  4.6268e+02   2.89e-02
  4.8168e+02   2.69e-02
  5.0145e+02   2.50e-02
  5.2204e+02   2.32e-02
  5.4347e+02   2.16e-02
  5.6578e+02   2.00e-02
  5.8901e+02   1.86e-02
  6.1319e+02   1.72e-02
  6.3836e+02   1.59e-02
  6.6457e+02   1.47e-02
  6.9185e+02   1.36e-02
  7.2025e+02   1.26e-02
  7.4982e+02   1.17e-02
  7.8061e+02   1.08e-02
  8.1265e+02   9.94e-03
  8.4601e+02   9.17e-03
  8.8075e+02   8.46e-03
  9.1690e+02   7.80e-03
  9.5455e+02   7.19e-03
  9.9373e+02   6.63e-03
  1.0345e+03   6.11e-03
  1.0770e+03   5.63e-03
  1.1212e+03   5.18e-03
  1.1672e+03   4.76e-03
  1.2152e+03   4.38e-03
  1.2650e+03   4.04e-03
  1.3170e+03   3.71e-03
  1.3711e+03   3.42e-03
  1.4273e+03   3.15e-03
  1.4859e+03   2.90e-03
  1.5469e+03   2.67e-03
  1.6104e+03   2.46e-03
  1.6766e+03   2.26e-03
  1.7454e+03   2.08e-03
  1.8170e+03   1.92e-03
  1.8916e+03   1.76e-03
  1.9693e+03   1.62e-03
  2.0501e+03   1.49e-03
  2.1343e+03   1.37e-03
  2.2219e+03   1.26e-03
  2.3131e+03   1.16e-03
  2.4081e+03   1.06e-03
  2.5070e+03   9.73e-04
  2.6099e+03   8.91e-04
  2.7170e+03   8.15e-04
  2.8286e+03   7.45e-04
  2.9447e+03   6.80e-04
  3.0656e+03   6.20e-04
  3.1914e+03   5.65e-04
  3.3225e+03   5.13e-04
  3.4589e+03   4.66e-04
  3.6008e+03   4.22e-04
  3.7487e+03   3.82e-04
  3.9026e+03   3.45e-04
  4.0628e+03   3.11e-04
  4.2296e+03   2.80e-04
  4.4032e+03   2.51e-04
  4.5840e+03   2.25e-04
  4.7722e+03   2.00e-04
  4.9681e+03   1.79e-04
  5.1720e+03   1.58e-04
  5.3844e+03   1.40e-04
  5.6054e+03   1.24e-04
  5.8355e+03   1.09e-04
  6.0751e+03   9.51e-05
  6.3245e+03   8.31e-05
  6.5841e+03   7.21e-05
  6.8544e+03   6.23e-05
  7.1358e+03   5.37e-05
  7.4288e+03   4.59e-05
  7.7338e+03   3.91e-05
  8.0513e+03   3.32e-05
  8.3818e+03   2.78e-05
  8.7259e+03   2.33e-05
  9.0841e+03   1.93e-05
  9.4571e+03   1.58e-05
  9.8453e+03   1.29e-05
  1.0249e+04   1.05e-05
  1.0670e+04   8.32e-06
  1.1108e+04   6.61e-06
  1.1564e+04   5.17e-06
  1.2039e+04   3.96e-06
  1.2533e+04   3.03e-06
  1.3048e+04   2.26e-06
  1.3584e+04   1.65e-06
  1.4141e+04   1.20e-06
  1.4722e+04   8.39e-07
  1.5326e+04   5.75e-07
  1.5955e+04   3.86e-07
  1.6610e+04   2.49e-07
  1.7292e+04   1.55e-07
  1.8002e+04   9.32e-08
  1.8741e+04   5.29e-08
  1.9511e+04   2.87e-08
  2.0312e+04   1.47e-08
  2.1145e+04   6.92e-09
  2.2013e+04   3.04e-09
  2.2917e+04   1.21e-09
  2.3858e+04   4.24e-10
  2.4837e+04   1.33e-10
  2.5857e+04   3.53e-11
  2.6919e+04   7.63e-12
  2.8024e+04   1.35e-12
  2.9174e+04   1.80e-13
  3.0372e+04   1.70e-14
  3.1619e+04   1.10e-15
  3.2917e+04   4.27e-17
  3.4268e+04   8.94e-19
  3.5675e+04   8.86e-21
  3.7140e+04   3.31e-23
  3.8664e+04   3.68e-26
  4.0252e+04   8.81e-30
  4.1904e+04   2.82e-34
  4.3624e+04   6.87e-40
  4.5415e+04   5.65e-47
  4.7280e+04   1.90e-47
  4.9221e+04   1.66e-47
  5.1241e+04   1.47e-47
  5.3345e+04   1.28e-47
  5.5535e+04   1.14e-47
  5.7815e+04   1.02e-47
  6.0188e+04   9.01e-48
  6.2659e+04   8.11e-48
  6.5232e+04   7.27e-48
  6.7910e+04   6.50e-48
  7.0698e+04   5.83e-48
  7.3600e+04   5.20e-48
  7.6621e+04   4.60e-48
  7.9767e+04   4.04e-48
  8.3042e+04   3.51e-48
  8.6451e+04   3.05e-48
  9.0000e+04   2.66e-48
