#  E [MeV]   Flux [# cm^{-2} s^{-1}  MeV^{-1}]
  3.0000e+04   3.90e-25
  3.1141e+04   3.73e-25
  3.2326e+04   3.56e-25
  3.3556e+04   3.40e-25
  3.4832e+04   3.25e-25
  3.6157e+04   3.11e-25
  3.7533e+04   2.97e-25
  3.8961e+04   2.84e-25
  4.0443e+04   2.71e-25
  4.1982e+04   2.59e-25
  4.3579e+04   2.47e-25
  4.5237e+04   2.36e-25
  4.6958e+04   2.25e-25
  4.8744e+04   2.14e-25
  5.0598e+04   2.05e-25
  5.2523e+04   1.95e-25
  5.4521e+04   1.86e-25
  5.6596e+04   1.77e-25
  5.8749e+04   1.69e-25
  6.0984e+04   1.61e-25
  6.3304e+04   1.54e-25
  6.5712e+04   1.46e-25
  6.8212e+04   1.39e-25
  7.0807e+04   1.33e-25
  7.3500e+04   1.26e-25
  7.6297e+04   1.20e-25
  7.9199e+04   1.15e-25
  8.2212e+04   1.09e-25
  8.5340e+04   1.04e-25
  8.8586e+04   9.86e-26
  9.1956e+04   9.37e-26
  9.5455e+04   8.91e-26
  9.9086e+04   8.47e-26
  1.0286e+05   8.05e-26
  1.0677e+05   7.64e-26
  1.1083e+05   7.26e-26
  1.1505e+05   6.89e-26
  1.1942e+05   6.54e-26
  1.2397e+05   6.21e-26
  1.2868e+05   5.89e-26
  1.3358e+05   5.58e-26
  1.3866e+05   5.29e-26
  1.4394e+05   5.02e-26
  1.4941e+05   4.75e-26
  1.5509e+05   4.50e-26
  1.6100e+05   4.26e-26
  1.6712e+05   4.03e-26
  1.7348e+05   3.81e-26
  1.8008e+05   3.60e-26
  1.8693e+05   3.40e-26
  1.9404e+05   3.21e-26
  2.0142e+05   3.03e-26
  2.0908e+05   2.86e-26
  2.1704e+05   2.70e-26
  2.2529e+05   2.54e-26
  2.3387e+05   2.39e-26
  2.4276e+05   2.25e-26
  2.5200e+05   2.12e-26
  2.6158e+05   1.99e-26
  2.7154e+05   1.87e-26
  2.8187e+05   1.76e-26
  2.9259e+05   1.65e-26
  3.0372e+05   1.54e-26
  3.1527e+05   1.44e-26
  3.2727e+05   1.35e-26
  3.3972e+05   1.26e-26
  3.5264e+05   1.18e-26
  3.6606e+05   1.10e-26
  3.7998e+05   1.02e-26
  3.9444e+05   9.54e-27
  4.0945e+05   8.87e-27
  4.2502e+05   8.24e-27
  4.4119e+05   7.66e-27
  4.5798e+05   7.10e-27
  4.7540e+05   6.58e-27
  4.9348e+05   6.10e-27
  5.1226e+05   5.64e-27
  5.3175e+05   5.21e-27
  5.5198e+05   4.82e-27
  5.7297e+05   4.45e-27
  5.9477e+05   4.10e-27
  6.1740e+05   3.78e-27
  6.4089e+05   3.48e-27
  6.6527e+05   3.20e-27
  6.9058e+05   2.95e-27
  7.1685e+05   2.71e-27
  7.4412e+05   2.49e-27
  7.7243e+05   2.29e-27
  8.0181e+05   2.10e-27
  8.3232e+05   1.93e-27
  8.6398e+05   1.77e-27
  8.9685e+05   1.62e-27
  9.3097e+05   1.48e-27
  9.6638e+05   1.36e-27
  1.0031e+06   1.25e-27
  1.0413e+06   1.14e-27
  1.0809e+06   1.04e-27
  1.1220e+06   9.56e-28
  1.1647e+06   8.74e-28
  1.2090e+06   8.00e-28
  1.2550e+06   7.31e-28
  1.3028e+06   6.68e-28
  1.3523e+06   6.11e-28
  1.4038e+06   5.58e-28
  1.4572e+06   5.10e-28
  1.5126e+06   4.65e-28
  1.5702e+06   4.25e-28
  1.6299e+06   3.87e-28
  1.6919e+06   3.53e-28
  1.7563e+06   3.22e-28
  1.8231e+06   2.93e-28
  1.8925e+06   2.67e-28
  1.9645e+06   2.43e-28
  2.0392e+06   2.21e-28
  2.1168e+06   2.01e-28
  2.1973e+06   1.83e-28
  2.2809e+06   1.66e-28
  2.3677e+06   1.50e-28
  2.4577e+06   1.36e-28
  2.5512e+06   1.23e-28
  2.6483e+06   1.11e-28
  2.7490e+06   1.00e-28
  2.8536e+06   9.04e-29
  2.9622e+06   8.12e-29
  3.0749e+06   7.30e-29
  3.1918e+06   6.56e-29
  3.3133e+06   5.87e-29
  3.4393e+06   5.25e-29
  3.5702e+06   4.69e-29
  3.7060e+06   4.18e-29
  3.8470e+06   3.72e-29
  3.9933e+06   3.30e-29
  4.1452e+06   2.92e-29
  4.3029e+06   2.58e-29
  4.4666e+06   2.28e-29
  4.6366e+06   2.01e-29
  4.8129e+06   1.76e-29
  4.9960e+06   1.54e-29
  5.1861e+06   1.34e-29
  5.3834e+06   1.16e-29
  5.5882e+06   1.01e-29
  5.8008e+06   8.75e-30
  6.0215e+06   7.51e-30
  6.2506e+06   6.47e-30
  6.4883e+06   5.52e-30
  6.7352e+06   4.68e-30
  6.9914e+06   3.99e-30
  7.2574e+06   3.37e-30
  7.5335e+06   2.81e-30
  7.8201e+06   2.36e-30
  8.1176e+06   1.97e-30
  8.4264e+06   1.61e-30
  8.7470e+06   1.34e-30
  9.0797e+06   1.09e-30
  9.4251e+06   8.79e-31
  9.7837e+06   7.11e-31
  1.0156e+07   5.68e-31
  1.0542e+07   4.46e-31
  1.0943e+07   3.51e-31
  1.1360e+07   2.73e-31
  1.1792e+07   2.08e-31
  1.2240e+07   1.58e-31
  1.2706e+07   1.19e-31
  1.3189e+07   8.69e-32
  1.3691e+07   6.31e-32
  1.4212e+07   4.51e-32
  1.4753e+07   3.13e-32
  1.5314e+07   2.14e-32
  1.5897e+07   1.43e-32
  1.6501e+07   9.24e-33
  1.7129e+07   5.79e-33
  1.7781e+07   3.53e-33
  1.8457e+07   2.04e-33
  1.9159e+07   1.13e-33
  1.9888e+07   5.99e-34
  2.0645e+07   2.96e-34
  2.1430e+07   1.36e-34
  2.2245e+07   5.85e-35
  2.3092e+07   2.27e-35
  2.3970e+07   7.83e-36
  2.4882e+07   2.40e-36
  2.5829e+07   6.26e-37
  2.6811e+07   1.36e-37
  2.7831e+07   2.39e-38
  2.8890e+07   3.23e-39
  2.9989e+07   3.20e-40
  3.1130e+07   2.21e-41
  3.2314e+07   9.70e-43
  3.3544e+07   2.46e-44
  3.4820e+07   3.24e-46
  3.6144e+07   1.87e-48
  3.7519e+07   3.93e-51
  3.8947e+07   2.34e-54
  4.0428e+07   2.86e-58
  4.1966e+07   4.77e-63
  4.3563e+07   6.28e-69
  4.5220e+07   5.07e-72
  4.6941e+07   4.55e-72
  4.8726e+07   4.15e-72
  5.0580e+07   3.80e-72
