#  E [GeV]   # per interaction  [GeV^{-1}]
  3.0000e+01   6.21e-01
  3.1232e+01   5.94e-01
  3.2514e+01   5.68e-01
  3.3849e+01   5.43e-01
  3.5238e+01   5.19e-01
  3.6685e+01   4.97e-01
  3.8191e+01   4.75e-01
  3.9759e+01   4.54e-01
  4.1391e+01   4.34e-01
  4.3090e+01   4.15e-01
  4.4859e+01   3.96e-01
  4.6701e+01   3.79e-01
  4.8618e+01   3.62e-01
  5.0614e+01   3.46e-01
  5.2692e+01   3.30e-01
  5.4855e+01   3.15e-01
  5.7107e+01   3.01e-01
  5.9451e+01   2.88e-01
  6.1892e+01   2.75e-01
  6.4433e+01   2.62e-01
  6.7078e+01   2.50e-01
  6.9832e+01   2.39e-01
  7.2699e+01   2.28e-01
  7.5683e+01   2.18e-01
  7.8790e+01   2.08e-01
  8.2025e+01   1.98e-01
  8.5392e+01   1.89e-01
  8.8898e+01   1.80e-01
  9.2547e+01   1.72e-01
  9.6347e+01   1.64e-01
  1.0030e+02   1.56e-01
  1.0442e+02   1.49e-01
  1.0871e+02   1.42e-01
  1.1317e+02   1.35e-01
  1.1782e+02   1.29e-01
  1.2265e+02   1.22e-01
  1.2769e+02   1.17e-01
  1.3293e+02   1.11e-01
  1.3839e+02   1.05e-01
  1.4407e+02   1.00e-01
  1.4998e+02   9.52e-02
  1.5614e+02   9.05e-02
  1.6255e+02   8.59e-02
  1.6922e+02   8.15e-02
  1.7617e+02   7.73e-02
  1.8340e+02   7.33e-02
  1.9093e+02   6.95e-02
  1.9877e+02   6.58e-02
  2.0693e+02   6.23e-02
  2.1543e+02   5.89e-02
  2.2427e+02   5.56e-02
  2.3348e+02   5.26e-02
  2.4306e+02   4.96e-02
  2.5304e+02   4.68e-02
  2.6343e+02   4.41e-02
  2.7424e+02   4.15e-02
  2.8550e+02   3.90e-02
  2.9722e+02   3.66e-02
  3.0942e+02   3.44e-02
  3.2213e+02   3.22e-02
  3.3535e+02   3.02e-02
  3.4912e+02   2.82e-02
  3.6345e+02   2.64e-02
  3.7837e+02   2.46e-02
  3.9390e+02   2.30e-02
  4.1008e+02   2.14e-02
  4.2691e+02   1.99e-02
  4.4444e+02   1.85e-02
  4.6268e+02   1.72e-02
  4.8168e+02   1.59e-02
  5.0145e+02   1.47e-02
  5.2204e+02   1.36e-02
  5.4347e+02   1.26e-02
  5.6578e+02   1.16e-02
  5.8901e+02   1.07e-02
  6.1319e+02   9.89e-03
  6.3836e+02   9.11e-03
  6.6457e+02   8.39e-03
  6.9185e+02   7.71e-03
  7.2025e+02   7.09e-03
  7.4982e+02   6.51e-03
  7.8061e+02   5.98e-03
  8.1265e+02   5.49e-03
  8.4601e+02   5.04e-03
  8.8075e+02   4.62e-03
  9.1690e+02   4.24e-03
  9.5455e+02   3.89e-03
  9.9373e+02   3.56e-03
  1.0345e+03   3.27e-03
  1.0770e+03   3.00e-03
  1.1212e+03   2.75e-03
  1.1672e+03   2.52e-03
  1.2152e+03   2.31e-03
  1.2650e+03   2.12e-03
  1.3170e+03   1.95e-03
  1.3711e+03   1.79e-03
  1.4273e+03   1.64e-03
  1.4859e+03   1.51e-03
  1.5469e+03   1.38e-03
  1.6104e+03   1.27e-03
  1.6766e+03   1.17e-03
  1.7454e+03   1.07e-03
  1.8170e+03   9.85e-04
  1.8916e+03   9.04e-04
  1.9693e+03   8.31e-04
  2.0501e+03   7.62e-04
  2.1343e+03   7.00e-04
  2.2219e+03   6.42e-04
  2.3131e+03   5.88e-04
  2.4081e+03   5.39e-04
  2.5070e+03   4.94e-04
  2.6099e+03   4.52e-04
  2.7170e+03   4.13e-04
  2.8286e+03   3.77e-04
  2.9447e+03   3.44e-04
  3.0656e+03   3.14e-04
  3.1914e+03   2.86e-04
  3.3225e+03   2.59e-04
  3.4589e+03   2.35e-04
  3.6008e+03   2.13e-04
  3.7487e+03   1.93e-04
  3.9026e+03   1.74e-04
  4.0628e+03   1.57e-04
  4.2296e+03   1.41e-04
  4.4032e+03   1.26e-04
  4.5840e+03   1.13e-04
  4.7722e+03   1.00e-04
  4.9681e+03   8.92e-05
  5.1720e+03   7.88e-05
  5.3844e+03   6.96e-05
  5.6054e+03   6.12e-05
  5.8355e+03   5.34e-05
  6.0751e+03   4.66e-05
  6.3245e+03   4.04e-05
  6.5841e+03   3.48e-05
  6.8544e+03   2.99e-05
  7.1358e+03   2.55e-05
  7.4288e+03   2.16e-05
  7.7338e+03   1.82e-05
  8.0513e+03   1.52e-05
  8.3818e+03   1.25e-05
  8.7259e+03   1.03e-05
  9.0841e+03   8.35e-06
  9.4571e+03   6.70e-06
  9.8453e+03   5.32e-06
  1.0249e+04   4.16e-06
  1.0670e+04   3.21e-06
  1.1108e+04   2.44e-06
  1.1564e+04   1.82e-06
  1.2039e+04   1.33e-06
  1.2533e+04   9.56e-07
  1.3048e+04   6.66e-07
  1.3584e+04   4.54e-07
  1.4141e+04   3.00e-07
  1.4722e+04   1.91e-07
  1.5326e+04   1.18e-07
  1.5955e+04   6.92e-08
  1.6610e+04   3.86e-08
  1.7292e+04   2.05e-08
  1.8002e+04   1.02e-08
  1.8741e+04   4.68e-09
  1.9511e+04   2.00e-09
  2.0312e+04   7.70e-10
  2.1145e+04   2.65e-10
  2.2013e+04   8.09e-11
  2.2917e+04   2.11e-11
  2.3858e+04   4.62e-12
  2.4837e+04   8.27e-13
  2.5857e+04   1.15e-13
  2.6919e+04   1.21e-14
  2.8024e+04   8.97e-16
  2.9174e+04   4.37e-17
  3.0372e+04   1.31e-18
  3.1619e+04   2.14e-20
  3.2917e+04   1.66e-22
  3.4268e+04   5.30e-25
  3.5675e+04   5.52e-28
  3.7140e+04   1.42e-31
  3.8664e+04   6.66e-36
  4.0252e+04   3.47e-41
  4.1904e+04   5.57e-47
  4.3624e+04   4.73e-47
  4.5415e+04   3.95e-47
  4.7280e+04   3.27e-47
  4.9221e+04   2.76e-47
  5.1241e+04   2.29e-47
  5.3345e+04   1.90e-47
  5.5535e+04   1.59e-47
  5.7815e+04   1.31e-47
  6.0188e+04   1.08e-47
  6.2659e+04   9.00e-48
  6.5232e+04   7.28e-48
  6.7910e+04   5.99e-48
  7.0698e+04   4.91e-48
  7.3600e+04   3.91e-48
  7.6621e+04   3.13e-48
  7.9767e+04   2.44e-48
  8.3042e+04   1.79e-48
  8.6451e+04   1.33e-48
  9.0000e+04   9.09e-49
