#  E [MeV]   Flux [# cm^{-2} s^{-1}  MeV^{-1}]
  3.0000e+04   9.49e-24
  3.0962e+04   9.11e-24
  3.1955e+04   8.75e-24
  3.2979e+04   8.40e-24
  3.4037e+04   8.06e-24
  3.5128e+04   7.74e-24
  3.6254e+04   7.42e-24
  3.7417e+04   7.12e-24
  3.8616e+04   6.83e-24
  3.9855e+04   6.55e-24
  4.1132e+04   6.29e-24
  4.2451e+04   6.03e-24
  4.3812e+04   5.78e-24
  4.5217e+04   5.54e-24
  4.6667e+04   5.31e-24
  4.8163e+04   5.09e-24
  4.9707e+04   4.88e-24
  5.1301e+04   4.67e-24
  5.2946e+04   4.47e-24
  5.4644e+04   4.28e-24
  5.6396e+04   4.10e-24
  5.8204e+04   3.93e-24
  6.0070e+04   3.76e-24
  6.1996e+04   3.59e-24
  6.3984e+04   3.44e-24
  6.6035e+04   3.29e-24
  6.8153e+04   3.15e-24
  7.0338e+04   3.01e-24
  7.2593e+04   2.88e-24
  7.4921e+04   2.75e-24
  7.7323e+04   2.63e-24
  7.9802e+04   2.51e-24
  8.2361e+04   2.40e-24
  8.5002e+04   2.29e-24
  8.7727e+04   2.18e-24
  9.0540e+04   2.08e-24
  9.3443e+04   1.99e-24
  9.6439e+04   1.90e-24
  9.9531e+04   1.81e-24
  1.0272e+05   1.72e-24
  1.0602e+05   1.64e-24
  1.0942e+05   1.57e-24
  1.1292e+05   1.49e-24
  1.1654e+05   1.42e-24
  1.2028e+05   1.35e-24
  1.2414e+05   1.29e-24
  1.2812e+05   1.22e-24
  1.3223e+05   1.16e-24
  1.3646e+05   1.11e-24
  1.4084e+05   1.05e-24
  1.4536e+05   9.97e-25
  1.5002e+05   9.47e-25
  1.5483e+05   8.99e-25
  1.5979e+05   8.53e-25
  1.6491e+05   8.09e-25
  1.7020e+05   7.67e-25
  1.7566e+05   7.27e-25
  1.8129e+05   6.90e-25
  1.8710e+05   6.53e-25
  1.9310e+05   6.19e-25
  1.9929e+05   5.86e-25
  2.0568e+05   5.54e-25
  2.1228e+05   5.24e-25
  2.1909e+05   4.96e-25
  2.2611e+05   4.69e-25
  2.3336e+05   4.43e-25
  2.4084e+05   4.18e-25
  2.4856e+05   3.95e-25
  2.5653e+05   3.73e-25
  2.6476e+05   3.51e-25
  2.7325e+05   3.31e-25
  2.8201e+05   3.12e-25
  2.9105e+05   2.94e-25
  3.0038e+05   2.77e-25
  3.1002e+05   2.60e-25
  3.1996e+05   2.45e-25
  3.3021e+05   2.30e-25
  3.4080e+05   2.16e-25
  3.5173e+05   2.03e-25
  3.6301e+05   1.91e-25
  3.7465e+05   1.79e-25
  3.8666e+05   1.68e-25
  3.9905e+05   1.57e-25
  4.1185e+05   1.47e-25
  4.2506e+05   1.37e-25
  4.3868e+05   1.28e-25
  4.5275e+05   1.20e-25
  4.6727e+05   1.12e-25
  4.8225e+05   1.05e-25
  4.9771e+05   9.74e-26
  5.1367e+05   9.09e-26
  5.3014e+05   8.46e-26
  5.4714e+05   7.87e-26
  5.6468e+05   7.32e-26
  5.8278e+05   6.81e-26
  6.0147e+05   6.32e-26
  6.2075e+05   5.86e-26
  6.4066e+05   5.44e-26
  6.6120e+05   5.04e-26
  6.8240e+05   4.67e-26
  7.0428e+05   4.32e-26
  7.2686e+05   4.00e-26
  7.5017e+05   3.69e-26
  7.7422e+05   3.41e-26
  7.9904e+05   3.15e-26
  8.2466e+05   2.90e-26
  8.5110e+05   2.67e-26
  8.7839e+05   2.46e-26
  9.0656e+05   2.26e-26
  9.3562e+05   2.08e-26
  9.6562e+05   1.91e-26
  9.9658e+05   1.75e-26
  1.0285e+06   1.61e-26
  1.0615e+06   1.48e-26
  1.0956e+06   1.35e-26
  1.1307e+06   1.24e-26
  1.1669e+06   1.13e-26
  1.2043e+06   1.03e-26
  1.2430e+06   9.42e-27
  1.2828e+06   8.62e-27
  1.3239e+06   7.86e-27
  1.3664e+06   7.15e-27
  1.4102e+06   6.51e-27
  1.4554e+06   5.94e-27
  1.5021e+06   5.40e-27
  1.5502e+06   4.89e-27
  1.6000e+06   4.45e-27
  1.6513e+06   4.04e-27
  1.7042e+06   3.65e-27
  1.7588e+06   3.30e-27
  1.8152e+06   2.99e-27
  1.8734e+06   2.70e-27
  1.9335e+06   2.43e-27
  1.9955e+06   2.20e-27
  2.0595e+06   1.99e-27
  2.1255e+06   1.79e-27
  2.1937e+06   1.60e-27
  2.2640e+06   1.45e-27
  2.3366e+06   1.30e-27
  2.4115e+06   1.17e-27
  2.4888e+06   1.04e-27
  2.5686e+06   9.39e-28
  2.6510e+06   8.41e-28
  2.7360e+06   7.49e-28
  2.8237e+06   6.70e-28
  2.9142e+06   6.01e-28
  3.0077e+06   5.36e-28
  3.1041e+06   4.74e-28
  3.2036e+06   4.25e-28
  3.3064e+06   3.79e-28
  3.4124e+06   3.36e-28
  3.5218e+06   2.97e-28
  3.6347e+06   2.66e-28
  3.7512e+06   2.36e-28
  3.8715e+06   2.08e-28
  3.9957e+06   1.85e-28
  4.1238e+06   1.64e-28
  4.2560e+06   1.45e-28
  4.3924e+06   1.27e-28
  4.5333e+06   1.14e-28
  4.6786e+06   1.01e-28
  4.8286e+06   8.90e-29
  4.9835e+06   7.85e-29
  5.1433e+06   7.00e-29
  5.3082e+06   6.20e-29
  5.4784e+06   5.44e-29
  5.6540e+06   4.84e-29
  5.8353e+06   4.31e-29
  6.0224e+06   3.81e-29
  6.2155e+06   3.35e-29
  6.4148e+06   3.01e-29
  6.6205e+06   2.69e-29
  6.8327e+06   2.39e-29
  7.0518e+06   2.13e-29
  7.2779e+06   1.92e-29
  7.5113e+06   1.72e-29
  7.7521e+06   1.53e-29
  8.0007e+06   1.38e-29
  8.2572e+06   1.25e-29
  8.5219e+06   1.12e-29
  8.7952e+06   1.00e-29
  9.0772e+06   9.08e-30
  9.3682e+06   8.20e-30
  9.6686e+06   7.37e-30
  9.9786e+06   6.64e-30
  1.0299e+07   6.01e-30
  1.0629e+07   5.42e-30
  1.0970e+07   4.87e-30
  1.1321e+07   4.39e-30
  1.1684e+07   3.95e-30
  1.2059e+07   3.54e-30
  1.2446e+07   3.15e-30
  1.2845e+07   2.81e-30
  1.3256e+07   2.49e-30
  1.3681e+07   2.19e-30
  1.4120e+07   1.91e-30
  1.4573e+07   1.66e-30
  1.5040e+07   1.43e-30
  1.5522e+07   1.22e-30
  1.6020e+07   1.05e-30
