#  E [MeV]   Flux [# cm^{-2} s^{-1}  MeV^{-1}]
  3.0000e+04   1.16e-25
  3.1141e+04   1.12e-25
  3.2326e+04   1.07e-25
  3.3556e+04   1.03e-25
  3.4832e+04   9.85e-26
  3.6157e+04   9.45e-26
  3.7533e+04   9.06e-26
  3.8961e+04   8.68e-26
  4.0443e+04   8.33e-26
  4.1982e+04   7.98e-26
  4.3579e+04   7.65e-26
  4.5237e+04   7.33e-26
  4.6958e+04   7.02e-26
  4.8744e+04   6.73e-26
  5.0598e+04   6.45e-26
  5.2523e+04   6.18e-26
  5.4521e+04   5.92e-26
  5.6596e+04   5.67e-26
  5.8749e+04   5.43e-26
  6.0984e+04   5.19e-26
  6.3304e+04   4.97e-26
  6.5712e+04   4.76e-26
  6.8212e+04   4.55e-26
  7.0807e+04   4.36e-26
  7.3500e+04   4.17e-26
  7.6297e+04   3.99e-26
  7.9199e+04   3.81e-26
  8.2212e+04   3.64e-26
  8.5340e+04   3.48e-26
  8.8586e+04   3.33e-26
  9.1956e+04   3.18e-26
  9.5455e+04   3.04e-26
  9.9086e+04   2.90e-26
  1.0286e+05   2.77e-26
  1.0677e+05   2.64e-26
  1.1083e+05   2.52e-26
  1.1505e+05   2.41e-26
  1.1942e+05   2.29e-26
  1.2397e+05   2.19e-26
  1.2868e+05   2.08e-26
  1.3358e+05   1.99e-26
  1.3866e+05   1.89e-26
  1.4394e+05   1.80e-26
  1.4941e+05   1.71e-26
  1.5509e+05   1.63e-26
  1.6100e+05   1.55e-26
  1.6712e+05   1.47e-26
  1.7348e+05   1.40e-26
  1.8008e+05   1.32e-26
  1.8693e+05   1.26e-26
  1.9404e+05   1.19e-26
  2.0142e+05   1.13e-26
  2.0908e+05   1.07e-26
  2.1704e+05   1.01e-26
  2.2529e+05   9.55e-27
  2.3387e+05   9.02e-27
  2.4276e+05   8.51e-27
  2.5200e+05   8.03e-27
  2.6158e+05   7.57e-27
  2.7154e+05   7.13e-27
  2.8187e+05   6.71e-27
  2.9259e+05   6.31e-27
  3.0372e+05   5.92e-27
  3.1527e+05   5.56e-27
  3.2727e+05   5.21e-27
  3.3972e+05   4.87e-27
  3.5264e+05   4.56e-27
  3.6606e+05   4.26e-27
  3.7998e+05   3.97e-27
  3.9444e+05   3.70e-27
  4.0945e+05   3.45e-27
  4.2502e+05   3.21e-27
  4.4119e+05   2.98e-27
  4.5798e+05   2.77e-27
  4.7540e+05   2.57e-27
  4.9348e+05   2.38e-27
  5.1226e+05   2.20e-27
  5.3175e+05   2.04e-27
  5.5198e+05   1.88e-27
  5.7297e+05   1.74e-27
  5.9477e+05   1.60e-27
  6.1740e+05   1.48e-27
  6.4089e+05   1.36e-27
  6.6527e+05   1.25e-27
  6.9058e+05   1.15e-27
  7.1685e+05   1.06e-27
  7.4412e+05   9.72e-28
  7.7243e+05   8.93e-28
  8.0181e+05   8.20e-28
  8.3232e+05   7.52e-28
  8.6398e+05   6.90e-28
  8.9685e+05   6.33e-28
  9.3097e+05   5.80e-28
  9.6638e+05   5.32e-28
  1.0031e+06   4.88e-28
  1.0413e+06   4.47e-28
  1.0809e+06   4.10e-28
  1.1220e+06   3.76e-28
  1.1647e+06   3.45e-28
  1.2090e+06   3.16e-28
  1.2550e+06   2.90e-28
  1.3028e+06   2.65e-28
  1.3523e+06   2.43e-28
  1.4038e+06   2.23e-28
  1.4572e+06   2.05e-28
  1.5126e+06   1.88e-28
  1.5702e+06   1.72e-28
  1.6299e+06   1.58e-28
  1.6919e+06   1.45e-28
  1.7563e+06   1.33e-28
  1.8231e+06   1.21e-28
  1.8925e+06   1.11e-28
  1.9645e+06   1.02e-28
  2.0392e+06   9.34e-29
  2.1168e+06   8.55e-29
  2.1973e+06   7.83e-29
  2.2809e+06   7.16e-29
  2.3677e+06   6.54e-29
  2.4577e+06   5.98e-29
  2.5512e+06   5.46e-29
  2.6483e+06   4.97e-29
  2.7490e+06   4.54e-29
  2.8536e+06   4.13e-29
  2.9622e+06   3.75e-29
  3.0749e+06   3.41e-29
  3.1918e+06   3.10e-29
  3.3133e+06   2.80e-29
  3.4393e+06   2.54e-29
  3.5702e+06   2.29e-29
  3.7060e+06   2.06e-29
  3.8470e+06   1.86e-29
  3.9933e+06   1.67e-29
  4.1452e+06   1.50e-29
  4.3029e+06   1.34e-29
  4.4666e+06   1.20e-29
  4.6366e+06   1.07e-29
  4.8129e+06   9.49e-30
  4.9960e+06   8.41e-30
  5.1861e+06   7.42e-30
  5.3834e+06   6.54e-30
  5.5882e+06   5.74e-30
  5.8008e+06   5.01e-30
  6.0215e+06   4.37e-30
  6.2506e+06   3.80e-30
  6.4883e+06   3.28e-30
  6.7352e+06   2.82e-30
  6.9914e+06   2.42e-30
  7.2574e+06   2.06e-30
  7.5335e+06   1.74e-30
  7.8201e+06   1.47e-30
  8.1176e+06   1.23e-30
  8.4264e+06   1.02e-30
  8.7470e+06   8.44e-31
  9.0797e+06   6.90e-31
  9.4251e+06   5.58e-31
  9.7837e+06   4.50e-31
  1.0156e+07   3.58e-31
  1.0542e+07   2.80e-31
  1.0943e+07   2.19e-31
  1.1360e+07   1.68e-31
  1.1792e+07   1.26e-31
  1.2240e+07   9.42e-32
  1.2706e+07   6.88e-32
  1.3189e+07   4.90e-32
  1.3691e+07   3.46e-32
  1.4212e+07   2.37e-32
  1.4753e+07   1.57e-32
  1.5314e+07   1.02e-32
  1.5897e+07   6.38e-33
  1.6501e+07   3.82e-33
  1.7129e+07   2.21e-33
  1.7781e+07   1.22e-33
  1.8457e+07   6.32e-34
  1.9159e+07   3.10e-34
  1.9888e+07   1.42e-34
  2.0645e+07   5.94e-35
  2.1430e+07   2.28e-35
  2.2245e+07   7.85e-36
  2.3092e+07   2.37e-36
  2.3970e+07   6.21e-37
  2.4882e+07   1.37e-37
  2.5829e+07   2.47e-38
  2.6811e+07   3.52e-39
  2.7831e+07   3.81e-40
  2.8890e+07   2.94e-41
  2.9989e+07   1.54e-42
  3.1130e+07   5.06e-44
  3.2314e+07   9.37e-46
  3.3544e+07   8.78e-48
  3.4820e+07   3.63e-50
  3.6144e+07   5.35e-53
  3.7519e+07   2.29e-56
  3.8947e+07   2.19e-60
  4.0428e+07   2.96e-65
  4.1966e+07   8.04e-71
  4.3563e+07   1.08e-70
  4.5220e+07   1.33e-70
  4.6941e+07   1.59e-70
  4.8726e+07   2.03e-70
  5.0580e+07   2.44e-70
