#  E [MeV]   Flux [# cm^{-2} s^{-1}  MeV^{-1}]
  3.0000e+04   1.67e-25
  3.1232e+04   1.59e-25
  3.2514e+04   1.52e-25
  3.3849e+04   1.45e-25
  3.5238e+04   1.38e-25
  3.6685e+04   1.32e-25
  3.8191e+04   1.26e-25
  3.9759e+04   1.20e-25
  4.1391e+04   1.14e-25
  4.3090e+04   1.09e-25
  4.4859e+04   1.03e-25
  4.6701e+04   9.85e-26
  4.8618e+04   9.38e-26
  5.0614e+04   8.93e-26
  5.2692e+04   8.50e-26
  5.4855e+04   8.09e-26
  5.7107e+04   7.70e-26
  5.9451e+04   7.32e-26
  6.1892e+04   6.96e-26
  6.4433e+04   6.62e-26
  6.7078e+04   6.30e-26
  6.9832e+04   5.98e-26
  7.2699e+04   5.69e-26
  7.5683e+04   5.40e-26
  7.8790e+04   5.13e-26
  8.2025e+04   4.87e-26
  8.5392e+04   4.63e-26
  8.8898e+04   4.39e-26
  9.2547e+04   4.17e-26
  9.6347e+04   3.96e-26
  1.0030e+05   3.76e-26
  1.0442e+05   3.56e-26
  1.0871e+05   3.38e-26
  1.1317e+05   3.20e-26
  1.1782e+05   3.04e-26
  1.2265e+05   2.88e-26
  1.2769e+05   2.73e-26
  1.3293e+05   2.58e-26
  1.3839e+05   2.44e-26
  1.4407e+05   2.31e-26
  1.4998e+05   2.19e-26
  1.5614e+05   2.07e-26
  1.6255e+05   1.96e-26
  1.6922e+05   1.85e-26
  1.7617e+05   1.75e-26
  1.8340e+05   1.65e-26
  1.9093e+05   1.56e-26
  1.9877e+05   1.47e-26
  2.0693e+05   1.39e-26
  2.1543e+05   1.31e-26
  2.2427e+05   1.24e-26
  2.3348e+05   1.17e-26
  2.4306e+05   1.10e-26
  2.5304e+05   1.03e-26
  2.6343e+05   9.72e-27
  2.7424e+05   9.14e-27
  2.8550e+05   8.59e-27
  2.9722e+05   8.07e-27
  3.0942e+05   7.58e-27
  3.2213e+05   7.11e-27
  3.3535e+05   6.66e-27
  3.4912e+05   6.24e-27
  3.6345e+05   5.85e-27
  3.7837e+05   5.47e-27
  3.9390e+05   5.12e-27
  4.1008e+05   4.78e-27
  4.2691e+05   4.47e-27
  4.4444e+05   4.17e-27
  4.6268e+05   3.89e-27
  4.8168e+05   3.62e-27
  5.0145e+05   3.37e-27
  5.2204e+05   3.14e-27
  5.4347e+05   2.92e-27
  5.6578e+05   2.71e-27
  5.8901e+05   2.52e-27
  6.1319e+05   2.34e-27
  6.3836e+05   2.17e-27
  6.6457e+05   2.01e-27
  6.9185e+05   1.86e-27
  7.2025e+05   1.72e-27
  7.4982e+05   1.59e-27
  7.8061e+05   1.47e-27
  8.1265e+05   1.36e-27
  8.4601e+05   1.26e-27
  8.8075e+05   1.16e-27
  9.1690e+05   1.07e-27
  9.5455e+05   9.91e-28
  9.9373e+05   9.14e-28
  1.0345e+06   8.44e-28
  1.0770e+06   7.78e-28
  1.1212e+06   7.17e-28
  1.1672e+06   6.61e-28
  1.2152e+06   6.09e-28
  1.2650e+06   5.62e-28
  1.3170e+06   5.17e-28
  1.3711e+06   4.76e-28
  1.4273e+06   4.39e-28
  1.4859e+06   4.04e-28
  1.5469e+06   3.72e-28
  1.6104e+06   3.42e-28
  1.6766e+06   3.14e-28
  1.7454e+06   2.89e-28
  1.8170e+06   2.66e-28
  1.8916e+06   2.44e-28
  1.9693e+06   2.24e-28
  2.0501e+06   2.06e-28
  2.1343e+06   1.89e-28
  2.2219e+06   1.73e-28
  2.3131e+06   1.58e-28
  2.4081e+06   1.45e-28
  2.5070e+06   1.32e-28
  2.6099e+06   1.21e-28
  2.7170e+06   1.10e-28
  2.8286e+06   1.01e-28
  2.9447e+06   9.17e-29
  3.0656e+06   8.33e-29
  3.1914e+06   7.58e-29
  3.3225e+06   6.87e-29
  3.4589e+06   6.22e-29
  3.6008e+06   5.64e-29
  3.7487e+06   5.09e-29
  3.9026e+06   4.59e-29
  4.0628e+06   4.14e-29
  4.2296e+06   3.72e-29
  4.4032e+06   3.34e-29
  4.5840e+06   2.99e-29
  4.7722e+06   2.67e-29
  4.9681e+06   2.38e-29
  5.1720e+06   2.11e-29
  5.3844e+06   1.87e-29
  5.6054e+06   1.66e-29
  5.8355e+06   1.46e-29
  6.0751e+06   1.28e-29
  6.3245e+06   1.13e-29
  6.5841e+06   9.88e-30
  6.8544e+06   8.58e-30
  7.1358e+06   7.48e-30
  7.4288e+06   6.47e-30
  7.7338e+06   5.56e-30
  8.0513e+06   4.79e-30
  8.3818e+06   4.09e-30
  8.7259e+06   3.47e-30
  9.0841e+06   2.94e-30
  9.4571e+06   2.47e-30
  9.8453e+06   2.06e-30
  1.0249e+07   1.72e-30
  1.0670e+07   1.41e-30
  1.1108e+07   1.15e-30
  1.1564e+07   9.38e-31
  1.2039e+07   7.50e-31
  1.2533e+07   5.99e-31
  1.3048e+07   4.72e-31
  1.3584e+07   3.64e-31
  1.4141e+07   2.81e-31
  1.4722e+07   2.12e-31
  1.5326e+07   1.56e-31
  1.5955e+07   1.15e-31
  1.6610e+07   8.17e-32
  1.7292e+07   5.64e-32
  1.8002e+07   3.84e-32
  1.8741e+07   2.51e-32
  1.9511e+07   1.58e-32
  2.0312e+07   9.61e-33
  2.1145e+07   5.52e-33
  2.2013e+07   3.01e-33
  2.2917e+07   1.54e-33
  2.3858e+07   7.24e-34
  2.4837e+07   3.12e-34
  2.5857e+07   1.21e-34
  2.6919e+07   4.07e-35
  2.8024e+07   1.18e-35
  2.9174e+07   2.84e-36
  3.0372e+07   5.34e-37
  3.1619e+07   7.70e-38
  3.2917e+07   7.79e-39
  3.4268e+07   5.06e-40
  3.5675e+07   1.96e-41
  3.7140e+07   3.82e-43
  3.8664e+07   3.12e-45
  4.0252e+07   8.60e-48
  4.1904e+07   5.69e-51
  4.3624e+07   5.93e-55
  4.5415e+07   5.51e-60
  4.7280e+07   2.04e-66
  4.9221e+07   3.61e-72
  5.1241e+07   3.28e-72
  5.3345e+07   2.97e-72
  5.5535e+07   2.71e-72
  5.7815e+07   2.47e-72
  6.0188e+07   2.25e-72
  6.2659e+07   2.06e-72
  6.5232e+07   1.89e-72
  6.7910e+07   1.73e-72
  7.0698e+07   1.57e-72
  7.3600e+07   1.43e-72
  7.6621e+07   1.30e-72
  7.9767e+07   1.16e-72
  8.3042e+07   1.04e-72
  8.6451e+07   9.24e-73
  9.0000e+07   8.40e-73
