#  E [MeV]   Flux [# cm^{-2} s^{-1}  MeV^{-1}]
  3.0000e+04   5.40e-25
  3.1051e+04   5.21e-25
  3.2139e+04   5.02e-25
  3.3266e+04   4.83e-25
  3.4432e+04   4.65e-25
  3.5638e+04   4.48e-25
  3.6887e+04   4.32e-25
  3.8180e+04   4.16e-25
  3.9518e+04   4.00e-25
  4.0903e+04   3.85e-25
  4.2336e+04   3.71e-25
  4.3820e+04   3.57e-25
  4.5355e+04   3.44e-25
  4.6945e+04   3.31e-25
  4.8590e+04   3.18e-25
  5.0293e+04   3.06e-25
  5.2055e+04   2.94e-25
  5.3879e+04   2.83e-25
  5.5767e+04   2.72e-25
  5.7722e+04   2.61e-25
  5.9745e+04   2.51e-25
  6.1838e+04   2.41e-25
  6.4005e+04   2.32e-25
  6.6248e+04   2.23e-25
  6.8570e+04   2.14e-25
  7.0973e+04   2.05e-25
  7.3460e+04   1.97e-25
  7.6034e+04   1.89e-25
  7.8699e+04   1.82e-25
  8.1457e+04   1.74e-25
  8.4311e+04   1.67e-25
  8.7266e+04   1.60e-25
  9.0324e+04   1.53e-25
  9.3490e+04   1.47e-25
  9.6766e+04   1.41e-25
  1.0016e+05   1.35e-25
  1.0367e+05   1.29e-25
  1.0730e+05   1.24e-25
  1.1106e+05   1.18e-25
  1.1495e+05   1.13e-25
  1.1898e+05   1.08e-25
  1.2315e+05   1.03e-25
  1.2747e+05   9.87e-26
  1.3193e+05   9.42e-26
  1.3656e+05   8.99e-26
  1.4134e+05   8.58e-26
  1.4629e+05   8.19e-26
  1.5142e+05   7.80e-26
  1.5673e+05   7.44e-26
  1.6222e+05   7.08e-26
  1.6790e+05   6.74e-26
  1.7379e+05   6.42e-26
  1.7988e+05   6.10e-26
  1.8618e+05   5.80e-26
  1.9271e+05   5.51e-26
  1.9946e+05   5.23e-26
  2.0645e+05   4.96e-26
  2.1369e+05   4.70e-26
  2.2117e+05   4.45e-26
  2.2892e+05   4.22e-26
  2.3695e+05   3.99e-26
  2.4525e+05   3.77e-26
  2.5385e+05   3.57e-26
  2.6274e+05   3.37e-26
  2.7195e+05   3.18e-26
  2.8148e+05   3.00e-26
  2.9134e+05   2.82e-26
  3.0155e+05   2.66e-26
  3.1212e+05   2.50e-26
  3.2306e+05   2.35e-26
  3.3438e+05   2.21e-26
  3.4610e+05   2.07e-26
  3.5823e+05   1.94e-26
  3.7078e+05   1.82e-26
  3.8377e+05   1.70e-26
  3.9722e+05   1.59e-26
  4.1114e+05   1.48e-26
  4.2555e+05   1.38e-26
  4.4046e+05   1.29e-26
  4.5590e+05   1.20e-26
  4.7188e+05   1.12e-26
  4.8841e+05   1.04e-26
  5.0553e+05   9.68e-27
  5.2324e+05   8.99e-27
  5.4158e+05   8.35e-27
  5.6056e+05   7.74e-27
  5.8020e+05   7.17e-27
  6.0054e+05   6.64e-27
  6.2158e+05   6.14e-27
  6.4337e+05   5.68e-27
  6.6591e+05   5.25e-27
  6.8925e+05   4.85e-27
  7.1340e+05   4.47e-27
  7.3840e+05   4.13e-27
  7.6428e+05   3.80e-27
  7.9106e+05   3.51e-27
  8.1878e+05   3.23e-27
  8.4748e+05   2.97e-27
  8.7718e+05   2.74e-27
  9.0792e+05   2.52e-27
  9.3973e+05   2.31e-27
  9.7267e+05   2.13e-27
  1.0068e+06   1.96e-27
  1.0420e+06   1.80e-27
  1.0785e+06   1.65e-27
  1.1163e+06   1.52e-27
  1.1555e+06   1.40e-27
  1.1960e+06   1.28e-27
  1.2379e+06   1.18e-27
  1.2813e+06   1.08e-27
  1.3262e+06   9.93e-28
  1.3726e+06   9.12e-28
  1.4207e+06   8.37e-28
  1.4705e+06   7.68e-28
  1.5220e+06   7.04e-28
  1.5754e+06   6.46e-28
  1.6306e+06   5.93e-28
  1.6877e+06   5.43e-28
  1.7469e+06   4.98e-28
  1.8081e+06   4.56e-28
  1.8715e+06   4.17e-28
  1.9370e+06   3.83e-28
  2.0049e+06   3.50e-28
  2.0752e+06   3.20e-28
  2.1479e+06   2.93e-28
  2.2232e+06   2.68e-28
  2.3011e+06   2.44e-28
  2.3817e+06   2.23e-28
  2.4652e+06   2.03e-28
  2.5516e+06   1.85e-28
  2.6410e+06   1.68e-28
  2.7336e+06   1.53e-28
  2.8294e+06   1.39e-28
  2.9285e+06   1.26e-28
  3.0311e+06   1.14e-28
  3.1374e+06   1.03e-28
  3.2473e+06   9.34e-29
  3.3611e+06   8.41e-29
  3.4789e+06   7.60e-29
  3.6008e+06   6.83e-29
  3.7270e+06   6.12e-29
  3.8576e+06   5.50e-29
  3.9928e+06   4.93e-29
  4.1327e+06   4.39e-29
  4.2775e+06   3.91e-29
  4.4274e+06   3.49e-29
  4.5826e+06   3.09e-29
  4.7432e+06   2.73e-29
  4.9094e+06   2.42e-29
  5.0815e+06   2.13e-29
  5.2595e+06   1.86e-29
  5.4438e+06   1.63e-29
  5.6346e+06   1.43e-29
  5.8321e+06   1.24e-29
  6.0365e+06   1.07e-29
  6.2480e+06   9.25e-30
  6.4670e+06   7.93e-30
  6.6936e+06   6.76e-30
  6.9282e+06   5.78e-30
  7.1709e+06   4.90e-30
  7.4222e+06   4.11e-30
  7.6823e+06   3.47e-30
  7.9516e+06   2.90e-30
  8.2302e+06   2.39e-30
  8.5186e+06   1.97e-30
  8.8172e+06   1.62e-30
  9.1262e+06   1.32e-30
  9.4460e+06   1.05e-30
  9.7770e+06   8.49e-31
  1.0120e+07   6.74e-31
  1.0474e+07   5.24e-31
  1.0841e+07   4.09e-31
  1.1221e+07   3.15e-31
  1.1614e+07   2.38e-31
  1.2022e+07   1.77e-31
  1.2443e+07   1.32e-31
  1.2879e+07   9.53e-32
  1.3330e+07   6.71e-32
  1.3797e+07   4.76e-32
  1.4281e+07   3.28e-32
  1.4781e+07   2.17e-32
  1.5299e+07   1.43e-32
  1.5835e+07   9.22e-33
  1.6390e+07   5.68e-33
  1.6965e+07   3.39e-33
  1.7559e+07   1.98e-33
  1.8175e+07   1.10e-33
  1.8812e+07   5.71e-34
  1.9471e+07   2.92e-34
  2.0153e+07   1.39e-34
  2.0859e+07   6.04e-35
  2.1590e+07   2.49e-35
  2.2347e+07   9.38e-36
  2.3130e+07   3.13e-36
  2.3941e+07   9.29e-37
  2.4780e+07   2.45e-37
  2.5648e+07   5.38e-38
  2.6547e+07   9.50e-39
  2.7477e+07   1.43e-39
  2.8440e+07   1.61e-40
