#  E [GeV]   # per interaction  [GeV^{-1}]
  3.0000e+01   6.64e-01
  3.1232e+01   6.35e-01
  3.2514e+01   6.08e-01
  3.3849e+01   5.81e-01
  3.5238e+01   5.56e-01
  3.6685e+01   5.32e-01
  3.8191e+01   5.08e-01
  3.9759e+01   4.86e-01
  4.1391e+01   4.65e-01
  4.3090e+01   4.44e-01
  4.4859e+01   4.25e-01
  4.6701e+01   4.06e-01
  4.8618e+01   3.88e-01
  5.0614e+01   3.71e-01
  5.2692e+01   3.54e-01
  5.4855e+01   3.39e-01
  5.7107e+01   3.24e-01
  5.9451e+01   3.09e-01
  6.1892e+01   2.95e-01
  6.4433e+01   2.82e-01
  6.7078e+01   2.70e-01
  6.9832e+01   2.57e-01
  7.2699e+01   2.46e-01
  7.5683e+01   2.35e-01
  7.8790e+01   2.24e-01
  8.2025e+01   2.14e-01
  8.5392e+01   2.04e-01
  8.8898e+01   1.95e-01
  9.2547e+01   1.86e-01
  9.6347e+01   1.78e-01
  1.0030e+02   1.70e-01
  1.0442e+02   1.62e-01
  1.0871e+02   1.55e-01
  1.1317e+02   1.47e-01
  1.1782e+02   1.41e-01
  1.2265e+02   1.34e-01
  1.2769e+02   1.28e-01
  1.3293e+02   1.22e-01
  1.3839e+02   1.16e-01
  1.4407e+02   1.11e-01
  1.4998e+02   1.06e-01
  1.5614e+02   1.01e-01
  1.6255e+02   9.59e-02
  1.6922e+02   9.13e-02
  1.7617e+02   8.69e-02
  1.8340e+02   8.28e-02
  1.9093e+02   7.88e-02
  1.9877e+02   7.50e-02
  2.0693e+02   7.13e-02
  2.1543e+02   6.78e-02
  2.2427e+02   6.45e-02
  2.3348e+02   6.13e-02
  2.4306e+02   5.83e-02
  2.5304e+02   5.54e-02
  2.6343e+02   5.26e-02
  2.7424e+02   5.00e-02
  2.8550e+02   4.74e-02
  2.9722e+02   4.50e-02
  3.0942e+02   4.27e-02
  3.2213e+02   4.04e-02
  3.3535e+02   3.83e-02
  3.4912e+02   3.63e-02
  3.6345e+02   3.44e-02
  3.7837e+02   3.26e-02
  3.9390e+02   3.08e-02
  4.1008e+02   2.91e-02
  4.2691e+02   2.75e-02
  4.4444e+02   2.60e-02
  4.6268e+02   2.46e-02
  4.8168e+02   2.32e-02
  5.0145e+02   2.19e-02
  5.2204e+02   2.07e-02
  5.4347e+02   1.95e-02
  5.6578e+02   1.84e-02
  5.8901e+02   1.73e-02
  6.1319e+02   1.63e-02
  6.3836e+02   1.53e-02
  6.6457e+02   1.44e-02
  6.9185e+02   1.35e-02
  7.2025e+02   1.27e-02
  7.4982e+02   1.20e-02
  7.8061e+02   1.12e-02
  8.1265e+02   1.05e-02
  8.4601e+02   9.88e-03
  8.8075e+02   9.27e-03
  9.1690e+02   8.69e-03
  9.5455e+02   8.14e-03
  9.9373e+02   7.62e-03
  1.0345e+03   7.14e-03
  1.0770e+03   6.68e-03
  1.1212e+03   6.25e-03
  1.1672e+03   5.84e-03
  1.2152e+03   5.46e-03
  1.2650e+03   5.10e-03
  1.3170e+03   4.76e-03
  1.3711e+03   4.44e-03
  1.4273e+03   4.14e-03
  1.4859e+03   3.86e-03
  1.5469e+03   3.60e-03
  1.6104e+03   3.36e-03
  1.6766e+03   3.13e-03
  1.7454e+03   2.91e-03
  1.8170e+03   2.71e-03
  1.8916e+03   2.52e-03
  1.9693e+03   2.34e-03
  2.0501e+03   2.18e-03
  2.1343e+03   2.02e-03
  2.2219e+03   1.88e-03
  2.3131e+03   1.74e-03
  2.4081e+03   1.61e-03
  2.5070e+03   1.49e-03
  2.6099e+03   1.38e-03
  2.7170e+03   1.28e-03
  2.8286e+03   1.18e-03
  2.9447e+03   1.09e-03
  3.0656e+03   1.01e-03
  3.1914e+03   9.32e-04
  3.3225e+03   8.60e-04
  3.4589e+03   7.92e-04
  3.6008e+03   7.30e-04
  3.7487e+03   6.72e-04
  3.9026e+03   6.17e-04
  4.0628e+03   5.67e-04
  4.2296e+03   5.21e-04
  4.4032e+03   4.77e-04
  4.5840e+03   4.37e-04
  4.7722e+03   4.00e-04
  4.9681e+03   3.65e-04
  5.1720e+03   3.34e-04
  5.3844e+03   3.04e-04
  5.6054e+03   2.77e-04
  5.8355e+03   2.52e-04
  6.0751e+03   2.29e-04
  6.3245e+03   2.08e-04
  6.5841e+03   1.89e-04
  6.8544e+03   1.71e-04
  7.1358e+03   1.54e-04
  7.4288e+03   1.39e-04
  7.7338e+03   1.25e-04
  8.0513e+03   1.13e-04
  8.3818e+03   1.01e-04
  8.7259e+03   9.07e-05
  9.0841e+03   8.12e-05
  9.4571e+03   7.25e-05
  9.8453e+03   6.44e-05
  1.0249e+04   5.73e-05
  1.0670e+04   5.07e-05
  1.1108e+04   4.47e-05
  1.1564e+04   3.95e-05
  1.2039e+04   3.46e-05
  1.2533e+04   3.02e-05
  1.3048e+04   2.64e-05
  1.3584e+04   2.29e-05
  1.4141e+04   1.98e-05
  1.4722e+04   1.70e-05
  1.5326e+04   1.46e-05
  1.5955e+04   1.24e-05
  1.6610e+04   1.05e-05
  1.7292e+04   8.77e-06
  1.8002e+04   7.29e-06
  1.8741e+04   6.02e-06
  1.9511e+04   4.88e-06
  2.0312e+04   3.94e-06
  2.1145e+04   3.13e-06
  2.2013e+04   2.43e-06
  2.2917e+04   1.88e-06
  2.3858e+04   1.41e-06
  2.4837e+04   1.03e-06
  2.5857e+04   7.38e-07
  2.6919e+04   5.09e-07
  2.8024e+04   3.34e-07
  2.9174e+04   2.13e-07
  3.0372e+04   1.26e-07
  3.1619e+04   6.98e-08
  3.2917e+04   3.59e-08
  3.4268e+04   1.64e-08
  3.5675e+04   6.59e-09
  3.7140e+04   2.27e-09
  3.8664e+04   6.30e-10
  4.0252e+04   1.36e-10
  4.1904e+04   2.11e-11
  4.3624e+04   2.12e-12
  4.5415e+04   1.24e-13
  4.7280e+04   3.49e-15
  4.9221e+04   3.69e-17
  5.1241e+04   1.09e-19
  5.3345e+04   5.58e-23
  5.5535e+04   2.53e-27
  5.7815e+04   4.22e-33
  6.0188e+04   6.47e-41
  6.2659e+04   1.18e-47
  6.5232e+04   9.93e-48
  6.7910e+04   8.15e-48
  7.0698e+04   6.57e-48
  7.3600e+04   5.45e-48
  7.6621e+04   4.41e-48
  7.9767e+04   3.51e-48
  8.3042e+04   2.79e-48
  8.6451e+04   2.12e-48
  9.0000e+04   1.56e-48
