#  E [GeV]   # per interaction  [GeV^{-1}]
  3.0000e+01   3.33e-01
  3.0675e+01   3.21e-01
  3.1366e+01   3.10e-01
  3.2072e+01   2.98e-01
  3.2794e+01   2.87e-01
  3.3533e+01   2.77e-01
  3.4288e+01   2.67e-01
  3.5060e+01   2.57e-01
  3.5849e+01   2.48e-01
  3.6656e+01   2.38e-01
  3.7482e+01   2.29e-01
  3.8326e+01   2.21e-01
  3.9188e+01   2.13e-01
  4.0071e+01   2.04e-01
  4.0973e+01   1.97e-01
  4.1896e+01   1.89e-01
  4.2839e+01   1.82e-01
  4.3803e+01   1.75e-01
  4.4790e+01   1.68e-01
  4.5798e+01   1.62e-01
  4.6829e+01   1.55e-01
  4.7884e+01   1.49e-01
  4.8962e+01   1.43e-01
  5.0064e+01   1.38e-01
  5.1191e+01   1.32e-01
  5.2344e+01   1.27e-01
  5.3522e+01   1.22e-01
  5.4727e+01   1.17e-01
  5.5960e+01   1.12e-01
  5.7219e+01   1.07e-01
  5.8508e+01   1.03e-01
  5.9825e+01   9.86e-02
  6.1172e+01   9.45e-02
  6.2549e+01   9.05e-02
  6.3958e+01   8.67e-02
  6.5398e+01   8.29e-02
  6.6870e+01   7.93e-02
  6.8376e+01   7.59e-02
  6.9915e+01   7.26e-02
  7.1489e+01   6.94e-02
  7.3099e+01   6.64e-02
  7.4745e+01   6.34e-02
  7.6428e+01   6.05e-02
  7.8148e+01   5.79e-02
  7.9908e+01   5.53e-02
  8.1707e+01   5.27e-02
  8.3547e+01   5.03e-02
  8.5428e+01   4.80e-02
  8.7351e+01   4.58e-02
  8.9318e+01   4.37e-02
  9.1329e+01   4.16e-02
  9.3385e+01   3.96e-02
  9.5488e+01   3.77e-02
  9.7638e+01   3.59e-02
  9.9836e+01   3.42e-02
  1.0208e+02   3.26e-02
  1.0438e+02   3.10e-02
  1.0673e+02   2.94e-02
  1.0914e+02   2.80e-02
  1.1159e+02   2.66e-02
  1.1411e+02   2.53e-02
  1.1667e+02   2.40e-02
  1.1930e+02   2.28e-02
  1.2199e+02   2.16e-02
  1.2473e+02   2.05e-02
  1.2754e+02   1.94e-02
  1.3041e+02   1.84e-02
  1.3335e+02   1.74e-02
  1.3635e+02   1.65e-02
  1.3942e+02   1.56e-02
  1.4256e+02   1.48e-02
  1.4577e+02   1.40e-02
  1.4905e+02   1.32e-02
  1.5241e+02   1.24e-02
  1.5584e+02   1.18e-02
  1.5935e+02   1.11e-02
  1.6294e+02   1.05e-02
  1.6661e+02   9.87e-03
  1.7036e+02   9.28e-03
  1.7419e+02   8.76e-03
  1.7812e+02   8.26e-03
  1.8213e+02   7.77e-03
  1.8623e+02   7.31e-03
  1.9042e+02   6.86e-03
  1.9471e+02   6.45e-03
  1.9909e+02   6.07e-03
  2.0357e+02   5.70e-03
  2.0816e+02   5.35e-03
  2.1284e+02   5.01e-03
  2.1763e+02   4.70e-03
  2.2253e+02   4.41e-03
  2.2755e+02   4.13e-03
  2.3267e+02   3.87e-03
  2.3791e+02   3.61e-03
  2.4326e+02   3.38e-03
  2.4874e+02   3.16e-03
  2.5434e+02   2.96e-03
  2.6007e+02   2.76e-03
  2.6592e+02   2.57e-03
  2.7191e+02   2.39e-03
  2.7803e+02   2.23e-03
  2.8429e+02   2.08e-03
  2.9069e+02   1.94e-03
  2.9724e+02   1.80e-03
  3.0393e+02   1.66e-03
  3.1077e+02   1.55e-03
  3.1777e+02   1.44e-03
  3.2493e+02   1.34e-03
  3.3224e+02   1.24e-03
  3.3972e+02   1.14e-03
  3.4737e+02   1.06e-03
  3.5519e+02   9.87e-04
  3.6319e+02   9.14e-04
  3.7137e+02   8.44e-04
  3.7973e+02   7.76e-04
  3.8828e+02   7.18e-04
  3.9702e+02   6.65e-04
  4.0596e+02   6.14e-04
  4.1510e+02   5.66e-04
  4.2444e+02   5.19e-04
  4.3400e+02   4.78e-04
  4.4377e+02   4.42e-04
  4.5376e+02   4.07e-04
  4.6398e+02   3.74e-04
  4.7443e+02   3.42e-04
  4.8511e+02   3.13e-04
  4.9603e+02   2.89e-04
  5.0720e+02   2.65e-04
  5.1862e+02   2.43e-04
  5.3030e+02   2.21e-04
  5.4224e+02   2.02e-04
  5.5444e+02   1.86e-04
  5.6693e+02   1.70e-04
  5.7969e+02   1.56e-04
  5.9274e+02   1.42e-04
  6.0609e+02   1.28e-04
  6.1974e+02   1.18e-04
  6.3369e+02   1.08e-04
  6.4796e+02   9.84e-05
  6.6255e+02   8.94e-05
  6.7746e+02   8.08e-05
  6.9272e+02   7.40e-05
  7.0831e+02   6.76e-05
  7.2426e+02   6.16e-05
  7.4057e+02   5.59e-05
  7.5724e+02   5.05e-05
  7.7429e+02   4.60e-05
  7.9172e+02   4.21e-05
  8.0955e+02   3.83e-05
  8.2778e+02   3.48e-05
  8.4641e+02   3.14e-05
  8.6547e+02   2.85e-05
  8.8496e+02   2.61e-05
  9.0488e+02   2.38e-05
  9.2526e+02   2.16e-05
  9.4609e+02   1.95e-05
  9.6739e+02   1.77e-05
  9.8917e+02   1.62e-05
  1.0114e+03   1.49e-05
  1.0342e+03   1.35e-05
  1.0575e+03   1.23e-05
  1.0813e+03   1.11e-05
  1.1057e+03   1.03e-05
  1.1305e+03   9.44e-06
  1.1560e+03   8.65e-06
  1.1820e+03   7.89e-06
  1.2086e+03   7.18e-06
  1.2359e+03   6.65e-06
  1.2637e+03   6.14e-06
  1.2921e+03   5.66e-06
  1.3212e+03   5.20e-06
  1.3510e+03   4.76e-06
  1.3814e+03   4.42e-06
  1.4125e+03   4.11e-06
  1.4443e+03   3.80e-06
  1.4768e+03   3.52e-06
  1.5101e+03   3.24e-06
  1.5441e+03   3.02e-06
  1.5788e+03   2.82e-06
  1.6144e+03   2.63e-06
  1.6507e+03   2.45e-06
  1.6879e+03   2.28e-06
  1.7259e+03   2.12e-06
  1.7648e+03   1.99e-06
  1.8045e+03   1.86e-06
  1.8451e+03   1.74e-06
  1.8867e+03   1.62e-06
  1.9291e+03   1.51e-06
  1.9726e+03   1.42e-06
  2.0170e+03   1.33e-06
  2.0624e+03   1.24e-06
  2.1088e+03   1.15e-06
  2.1563e+03   1.07e-06
  2.2049e+03   9.97e-07
  2.2545e+03   9.25e-07
  2.3053e+03   8.57e-07
  2.3572e+03   7.91e-07
  2.4102e+03   7.28e-07
  2.4645e+03   6.86e-07
  2.5200e+03   6.46e-07
