#  E [GeV]   # per interaction  [GeV^{-1}]
  3.0000e+01   2.62e-02
  3.1123e+01   2.52e-02
  3.2288e+01   2.43e-02
  3.3497e+01   2.34e-02
  3.4751e+01   2.25e-02
  3.6051e+01   2.16e-02
  3.7401e+01   2.08e-02
  3.8801e+01   2.00e-02
  4.0253e+01   1.92e-02
  4.1760e+01   1.85e-02
  4.3324e+01   1.77e-02
  4.4945e+01   1.70e-02
  4.6628e+01   1.64e-02
  4.8373e+01   1.57e-02
  5.0184e+01   1.51e-02
  5.2063e+01   1.45e-02
  5.4011e+01   1.39e-02
  5.6033e+01   1.33e-02
  5.8131e+01   1.28e-02
  6.0307e+01   1.23e-02
  6.2564e+01   1.18e-02
  6.4906e+01   1.13e-02
  6.7336e+01   1.08e-02
  6.9857e+01   1.04e-02
  7.2472e+01   9.92e-03
  7.5184e+01   9.50e-03
  7.7999e+01   9.10e-03
  8.0919e+01   8.71e-03
  8.3948e+01   8.34e-03
  8.7090e+01   7.98e-03
  9.0350e+01   7.64e-03
  9.3732e+01   7.31e-03
  9.7241e+01   6.99e-03
  1.0088e+02   6.68e-03
  1.0466e+02   6.39e-03
  1.0858e+02   6.11e-03
  1.1264e+02   5.84e-03
  1.1686e+02   5.58e-03
  1.2123e+02   5.33e-03
  1.2577e+02   5.09e-03
  1.3048e+02   4.86e-03
  1.3536e+02   4.64e-03
  1.4043e+02   4.43e-03
  1.4568e+02   4.23e-03
  1.5114e+02   4.03e-03
  1.5680e+02   3.85e-03
  1.6266e+02   3.67e-03
  1.6875e+02   3.50e-03
  1.7507e+02   3.34e-03
  1.8162e+02   3.18e-03
  1.8842e+02   3.03e-03
  1.9548e+02   2.89e-03
  2.0279e+02   2.75e-03
  2.1039e+02   2.62e-03
  2.1826e+02   2.49e-03
  2.2643e+02   2.38e-03
  2.3491e+02   2.26e-03
  2.4370e+02   2.15e-03
  2.5282e+02   2.05e-03
  2.6229e+02   1.95e-03
  2.7211e+02   1.85e-03
  2.8229e+02   1.76e-03
  2.9286e+02   1.67e-03
  3.0382e+02   1.59e-03
  3.1519e+02   1.51e-03
  3.2699e+02   1.44e-03
  3.3923e+02   1.37e-03
  3.5193e+02   1.30e-03
  3.6511e+02   1.23e-03
  3.7877e+02   1.17e-03
  3.9295e+02   1.11e-03
  4.0766e+02   1.05e-03
  4.2292e+02   1.00e-03
  4.3875e+02   9.50e-04
  4.5518e+02   9.02e-04
  4.7222e+02   8.56e-04
  4.8989e+02   8.12e-04
  5.0823e+02   7.70e-04
  5.2726e+02   7.31e-04
  5.4699e+02   6.94e-04
  5.6747e+02   6.59e-04
  5.8871e+02   6.25e-04
  6.1075e+02   5.94e-04
  6.3361e+02   5.64e-04
  6.5733e+02   5.36e-04
  6.8194e+02   5.09e-04
  7.0746e+02   4.84e-04
  7.3395e+02   4.60e-04
  7.6142e+02   4.38e-04
  7.8992e+02   4.17e-04
  8.1949e+02   3.97e-04
  8.5017e+02   3.78e-04
  8.8199e+02   3.60e-04
  9.1501e+02   3.43e-04
  9.4926e+02   3.27e-04
  9.8479e+02   3.13e-04
  1.0217e+03   2.99e-04
  1.0599e+03   2.85e-04
  1.0996e+03   2.73e-04
  1.1407e+03   2.61e-04
  1.1834e+03   2.50e-04
  1.2277e+03   2.40e-04
  1.2737e+03   2.30e-04
  1.3214e+03   2.20e-04
  1.3708e+03   2.12e-04
  1.4222e+03   2.03e-04
  1.4754e+03   1.95e-04
  1.5306e+03   1.88e-04
  1.5879e+03   1.81e-04
  1.6474e+03   1.74e-04
  1.7090e+03   1.67e-04
  1.7730e+03   1.61e-04
  1.8394e+03   1.56e-04
  1.9082e+03   1.50e-04
  1.9797e+03   1.45e-04
  2.0538e+03   1.39e-04
  2.1306e+03   1.35e-04
  2.2104e+03   1.30e-04
  2.2931e+03   1.25e-04
  2.3790e+03   1.21e-04
  2.4680e+03   1.16e-04
  2.5604e+03   1.12e-04
  2.6563e+03   1.08e-04
  2.7557e+03   1.04e-04
  2.8589e+03   1.00e-04
  2.9659e+03   9.67e-05
  3.0769e+03   9.30e-05
  3.1921e+03   8.94e-05
  3.3116e+03   8.59e-05
  3.4355e+03   8.24e-05
  3.5641e+03   7.90e-05
  3.6976e+03   7.57e-05
  3.8360e+03   7.24e-05
  3.9796e+03   6.92e-05
  4.1285e+03   6.60e-05
  4.2831e+03   6.29e-05
  4.4434e+03   5.98e-05
  4.6097e+03   5.68e-05
  4.7823e+03   5.39e-05
  4.9613e+03   5.10e-05
  5.1470e+03   4.81e-05
  5.3397e+03   4.53e-05
  5.5396e+03   4.26e-05
  5.7470e+03   3.99e-05
  5.9621e+03   3.73e-05
  6.1853e+03   3.47e-05
  6.4168e+03   3.23e-05
  6.6570e+03   2.99e-05
  6.9062e+03   2.75e-05
  7.1647e+03   2.53e-05
  7.4329e+03   2.31e-05
  7.7112e+03   2.11e-05
  7.9998e+03   1.91e-05
  8.2993e+03   1.72e-05
  8.6100e+03   1.54e-05
  8.9323e+03   1.37e-05
  9.2666e+03   1.22e-05
  9.6135e+03   1.07e-05
  9.9734e+03   9.29e-06
  1.0347e+04   8.03e-06
  1.0734e+04   6.88e-06
  1.1136e+04   5.82e-06
  1.1553e+04   4.88e-06
  1.1985e+04   4.05e-06
  1.2434e+04   3.30e-06
  1.2899e+04   2.66e-06
  1.3382e+04   2.11e-06
  1.3883e+04   1.64e-06
  1.4403e+04   1.26e-06
  1.4942e+04   9.40e-07
  1.5501e+04   6.86e-07
  1.6081e+04   4.87e-07
  1.6683e+04   3.36e-07
  1.7308e+04   2.24e-07
  1.7956e+04   1.43e-07
  1.8628e+04   8.79e-08
  1.9325e+04   5.14e-08
  2.0049e+04   2.84e-08
  2.0799e+04   1.47e-08
  2.1578e+04   7.12e-09
  2.2386e+04   3.17e-09
  2.3224e+04   1.28e-09
  2.4093e+04   4.63e-10
  2.4995e+04   1.48e-10
  2.5930e+04   4.06e-11
  2.6901e+04   9.33e-12
  2.7908e+04   1.75e-12
  2.8953e+04   2.57e-13
  3.0037e+04   2.80e-14
  3.1161e+04   2.19e-15
  3.2327e+04   1.12e-16
  3.3537e+04   3.42e-18
  3.4793e+04   5.80e-20
  3.6095e+04   4.62e-22
  3.7446e+04   1.45e-24
  3.8848e+04   1.48e-27
  4.0302e+04   3.63e-31
  4.1811e+04   1.46e-35
  4.3376e+04   6.23e-41
  4.5000e+04   9.65e-47
