#  E [MeV]   Flux [# cm^{-2} s^{-1}  MeV^{-1}]
  3.0000e+04   1.24e-26
  3.1051e+04   1.19e-26
  3.2139e+04   1.14e-26
  3.3266e+04   1.10e-26
  3.4432e+04   1.06e-26
  3.5638e+04   1.02e-26
  3.6887e+04   9.78e-27
  3.8180e+04   9.40e-27
  3.9518e+04   9.03e-27
  4.0903e+04   8.67e-27
  4.2336e+04   8.32e-27
  4.3820e+04   7.99e-27
  4.5355e+04   7.67e-27
  4.6945e+04   7.36e-27
  4.8590e+04   7.06e-27
  5.0293e+04   6.77e-27
  5.2055e+04   6.49e-27
  5.3879e+04   6.22e-27
  5.5767e+04   5.96e-27
  5.7722e+04   5.71e-27
  5.9745e+04   5.47e-27
  6.1838e+04   5.23e-27
  6.4005e+04   5.01e-27
  6.6248e+04   4.80e-27
  6.8570e+04   4.59e-27
  7.0973e+04   4.39e-27
  7.3460e+04   4.20e-27
  7.6034e+04   4.01e-27
  7.8699e+04   3.84e-27
  8.1457e+04   3.67e-27
  8.4311e+04   3.50e-27
  8.7266e+04   3.34e-27
  9.0324e+04   3.19e-27
  9.3490e+04   3.04e-27
  9.6766e+04   2.90e-27
  1.0016e+05   2.77e-27
  1.0367e+05   2.64e-27
  1.0730e+05   2.52e-27
  1.1106e+05   2.40e-27
  1.1495e+05   2.28e-27
  1.1898e+05   2.17e-27
  1.2315e+05   2.07e-27
  1.2747e+05   1.97e-27
  1.3193e+05   1.87e-27
  1.3656e+05   1.78e-27
  1.4134e+05   1.69e-27
  1.4629e+05   1.61e-27
  1.5142e+05   1.53e-27
  1.5673e+05   1.45e-27
  1.6222e+05   1.37e-27
  1.6790e+05   1.30e-27
  1.7379e+05   1.23e-27
  1.7988e+05   1.17e-27
  1.8618e+05   1.11e-27
  1.9271e+05   1.05e-27
  1.9946e+05   9.91e-28
  2.0645e+05   9.36e-28
  2.1369e+05   8.85e-28
  2.2117e+05   8.35e-28
  2.2892e+05   7.88e-28
  2.3695e+05   7.43e-28
  2.4525e+05   7.00e-28
  2.5385e+05   6.59e-28
  2.6274e+05   6.20e-28
  2.7195e+05   5.83e-28
  2.8148e+05   5.47e-28
  2.9134e+05   5.14e-28
  3.0155e+05   4.82e-28
  3.1212e+05   4.52e-28
  3.2306e+05   4.23e-28
  3.3438e+05   3.96e-28
  3.4610e+05   3.71e-28
  3.5823e+05   3.46e-28
  3.7078e+05   3.23e-28
  3.8377e+05   3.02e-28
  3.9722e+05   2.81e-28
  4.1114e+05   2.62e-28
  4.2555e+05   2.44e-28
  4.4046e+05   2.27e-28
  4.5590e+05   2.10e-28
  4.7188e+05   1.95e-28
  4.8841e+05   1.81e-28
  5.0553e+05   1.68e-28
  5.2324e+05   1.56e-28
  5.4158e+05   1.44e-28
  5.6056e+05   1.34e-28
  5.8020e+05   1.24e-28
  6.0054e+05   1.14e-28
  6.2158e+05   1.06e-28
  6.4337e+05   9.78e-29
  6.6591e+05   9.04e-29
  6.8925e+05   8.35e-29
  7.1340e+05   7.72e-29
  7.3840e+05   7.13e-29
  7.6428e+05   6.59e-29
  7.9106e+05   6.09e-29
  8.1878e+05   5.62e-29
  8.4748e+05   5.20e-29
  8.7718e+05   4.81e-29
  9.0792e+05   4.45e-29
  9.3973e+05   4.12e-29
  9.7267e+05   3.81e-29
  1.0068e+06   3.53e-29
  1.0420e+06   3.27e-29
  1.0785e+06   3.04e-29
  1.1163e+06   2.82e-29
  1.1555e+06   2.62e-29
  1.1960e+06   2.43e-29
  1.2379e+06   2.27e-29
  1.2813e+06   2.11e-29
  1.3262e+06   1.96e-29
  1.3726e+06   1.83e-29
  1.4207e+06   1.71e-29
  1.4705e+06   1.60e-29
  1.5220e+06   1.49e-29
  1.5754e+06   1.40e-29
  1.6306e+06   1.31e-29
  1.6877e+06   1.22e-29
  1.7469e+06   1.15e-29
  1.8081e+06   1.08e-29
  1.8715e+06   1.01e-29
  1.9370e+06   9.51e-30
  2.0049e+06   8.94e-30
  2.0752e+06   8.41e-30
  2.1479e+06   7.92e-30
  2.2232e+06   7.45e-30
  2.3011e+06   7.02e-30
  2.3817e+06   6.61e-30
  2.4652e+06   6.23e-30
  2.5516e+06   5.86e-30
  2.6410e+06   5.52e-30
  2.7336e+06   5.21e-30
  2.8294e+06   4.90e-30
  2.9285e+06   4.62e-30
  3.0311e+06   4.35e-30
  3.1374e+06   4.09e-30
  3.2473e+06   3.84e-30
  3.3611e+06   3.61e-30
  3.4789e+06   3.39e-30
  3.6008e+06   3.19e-30
  3.7270e+06   2.99e-30
  3.8576e+06   2.80e-30
  3.9928e+06   2.62e-30
  4.1327e+06   2.45e-30
  4.2775e+06   2.28e-30
  4.4274e+06   2.13e-30
  4.5826e+06   1.98e-30
  4.7432e+06   1.84e-30
  4.9094e+06   1.70e-30
  5.0815e+06   1.57e-30
  5.2595e+06   1.45e-30
  5.4438e+06   1.33e-30
  5.6346e+06   1.22e-30
  5.8321e+06   1.11e-30
  6.0365e+06   1.01e-30
  6.2480e+06   9.18e-31
  6.4670e+06   8.29e-31
  6.6936e+06   7.46e-31
  6.9282e+06   6.68e-31
  7.1709e+06   5.95e-31
  7.4222e+06   5.27e-31
  7.6823e+06   4.64e-31
  7.9516e+06   4.06e-31
  8.2302e+06   3.53e-31
  8.5186e+06   3.05e-31
  8.8172e+06   2.61e-31
  9.1262e+06   2.21e-31
  9.4460e+06   1.86e-31
  9.7770e+06   1.55e-31
  1.0120e+07   1.27e-31
  1.0474e+07   1.03e-31
  1.0841e+07   8.27e-32
  1.1221e+07   6.53e-32
  1.1614e+07   5.07e-32
  1.2022e+07   3.87e-32
  1.2443e+07   2.89e-32
  1.2879e+07   2.12e-32
  1.3330e+07   1.52e-32
  1.3797e+07   1.06e-32
  1.4281e+07   7.15e-33
  1.4781e+07   4.69e-33
  1.5299e+07   2.97e-33
  1.5835e+07   1.81e-33
  1.6390e+07   1.05e-33
  1.6965e+07   5.85e-34
  1.7559e+07   3.07e-34
  1.8175e+07   1.52e-34
  1.8812e+07   7.01e-35
  1.9471e+07   2.99e-35
  2.0153e+07   1.17e-35
  2.0859e+07   4.14e-36
  2.1590e+07   1.31e-36
  2.2347e+07   3.64e-37
  2.3130e+07   8.75e-38
  2.3941e+07   1.78e-38
  2.4780e+07   2.97e-39
  2.5648e+07   3.99e-40
  2.6547e+07   4.17e-41
  2.7477e+07   3.25e-42
  2.8440e+07   1.79e-43
