#  E [MeV]   Flux [# cm^{-2} s^{-1}  MeV^{-1}]
  3.0000e+04   2.50e-20
  3.1123e+04   2.40e-20
  3.2288e+04   2.31e-20
  3.3497e+04   2.22e-20
  3.4751e+04   2.14e-20
  3.6051e+04   2.06e-20
  3.7401e+04   1.98e-20
  3.8801e+04   1.90e-20
  4.0253e+04   1.83e-20
  4.1760e+04   1.75e-20
  4.3324e+04   1.69e-20
  4.4945e+04   1.62e-20
  4.6628e+04   1.56e-20
  4.8373e+04   1.49e-20
  5.0184e+04   1.44e-20
  5.2063e+04   1.38e-20
  5.4011e+04   1.32e-20
  5.6033e+04   1.27e-20
  5.8131e+04   1.22e-20
  6.0307e+04   1.17e-20
  6.2564e+04   1.12e-20
  6.4906e+04   1.08e-20
  6.7336e+04   1.04e-20
  6.9857e+04   9.93e-21
  7.2472e+04   9.52e-21
  7.5184e+04   9.13e-21
  7.7999e+04   8.75e-21
  8.0919e+04   8.39e-21
  8.3948e+04   8.03e-21
  8.7090e+04   7.70e-21
  9.0350e+04   7.37e-21
  9.3732e+04   7.06e-21
  9.7241e+04   6.75e-21
  1.0088e+05   6.46e-21
  1.0466e+05   6.18e-21
  1.0858e+05   5.91e-21
  1.1264e+05   5.65e-21
  1.1686e+05   5.40e-21
  1.2123e+05   5.16e-21
  1.2577e+05   4.93e-21
  1.3048e+05   4.71e-21
  1.3536e+05   4.49e-21
  1.4043e+05   4.28e-21
  1.4568e+05   4.08e-21
  1.5114e+05   3.89e-21
  1.5680e+05   3.70e-21
  1.6266e+05   3.52e-21
  1.6875e+05   3.35e-21
  1.7507e+05   3.19e-21
  1.8162e+05   3.03e-21
  1.8842e+05   2.88e-21
  1.9548e+05   2.73e-21
  2.0279e+05   2.59e-21
  2.1039e+05   2.45e-21
  2.1826e+05   2.32e-21
  2.2643e+05   2.20e-21
  2.3491e+05   2.08e-21
  2.4370e+05   1.96e-21
  2.5282e+05   1.85e-21
  2.6229e+05   1.75e-21
  2.7211e+05   1.65e-21
  2.8229e+05   1.55e-21
  2.9286e+05   1.46e-21
  3.0382e+05   1.37e-21
  3.1519e+05   1.28e-21
  3.2699e+05   1.20e-21
  3.3923e+05   1.12e-21
  3.5193e+05   1.05e-21
  3.6511e+05   9.83e-22
  3.7877e+05   9.17e-22
  3.9295e+05   8.54e-22
  4.0766e+05   7.95e-22
  4.2292e+05   7.40e-22
  4.3875e+05   6.87e-22
  4.5518e+05   6.37e-22
  4.7222e+05   5.91e-22
  4.8989e+05   5.47e-22
  5.0823e+05   5.06e-22
  5.2726e+05   4.67e-22
  5.4699e+05   4.31e-22
  5.6747e+05   3.97e-22
  5.8871e+05   3.66e-22
  6.1075e+05   3.37e-22
  6.3361e+05   3.10e-22
  6.5733e+05   2.84e-22
  6.8194e+05   2.61e-22
  7.0746e+05   2.40e-22
  7.3395e+05   2.20e-22
  7.6142e+05   2.02e-22
  7.8992e+05   1.85e-22
  8.1949e+05   1.69e-22
  8.5017e+05   1.55e-22
  8.8199e+05   1.42e-22
  9.1501e+05   1.30e-22
  9.4926e+05   1.18e-22
  9.8479e+05   1.08e-22
  1.0217e+06   9.91e-23
  1.0599e+06   9.05e-23
  1.0996e+06   8.27e-23
  1.1407e+06   7.55e-23
  1.1834e+06   6.89e-23
  1.2277e+06   6.30e-23
  1.2737e+06   5.75e-23
  1.3214e+06   5.25e-23
  1.3708e+06   4.79e-23
  1.4222e+06   4.37e-23
  1.4754e+06   3.99e-23
  1.5306e+06   3.64e-23
  1.5879e+06   3.32e-23
  1.6474e+06   3.03e-23
  1.7090e+06   2.77e-23
  1.7730e+06   2.52e-23
  1.8394e+06   2.30e-23
  1.9082e+06   2.09e-23
  1.9797e+06   1.91e-23
  2.0538e+06   1.73e-23
  2.1306e+06   1.58e-23
  2.2104e+06   1.43e-23
  2.2931e+06   1.30e-23
  2.3790e+06   1.18e-23
  2.4680e+06   1.07e-23
  2.5604e+06   9.69e-24
  2.6563e+06   8.76e-24
  2.7557e+06   7.93e-24
  2.8589e+06   7.15e-24
  2.9659e+06   6.44e-24
  3.0769e+06   5.81e-24
  3.1921e+06   5.22e-24
  3.3116e+06   4.68e-24
  3.4355e+06   4.20e-24
  3.5641e+06   3.76e-24
  3.6976e+06   3.34e-24
  3.8360e+06   2.99e-24
  3.9796e+06   2.66e-24
  4.1285e+06   2.35e-24
  4.2831e+06   2.08e-24
  4.4434e+06   1.84e-24
  4.6097e+06   1.62e-24
  4.7823e+06   1.42e-24
  4.9613e+06   1.24e-24
  5.1470e+06   1.08e-24
  5.3397e+06   9.41e-25
  5.5396e+06   8.17e-25
  5.7470e+06   7.04e-25
  5.9621e+06   6.05e-25
  6.1853e+06   5.19e-25
  6.4168e+06   4.42e-25
  6.6570e+06   3.74e-25
  6.9062e+06   3.17e-25
  7.1647e+06   2.66e-25
  7.4329e+06   2.21e-25
  7.7112e+06   1.84e-25
  7.9998e+06   1.52e-25
  8.2993e+06   1.24e-25
  8.6100e+06   1.01e-25
  8.9323e+06   8.13e-26
  9.2666e+06   6.45e-26
  9.6135e+06   5.13e-26
  9.9734e+06   4.02e-26
  1.0347e+07   3.09e-26
  1.0734e+07   2.37e-26
  1.1136e+07   1.79e-26
  1.1553e+07   1.32e-26
  1.1985e+07   9.67e-27
  1.2434e+07   6.96e-27
  1.2899e+07   4.88e-27
  1.3382e+07   3.36e-27
  1.3883e+07   2.27e-27
  1.4403e+07   1.48e-27
  1.4942e+07   9.39e-28
  1.5501e+07   5.82e-28
  1.6081e+07   3.44e-28
  1.6683e+07   1.95e-28
  1.7308e+07   1.07e-28
  1.7956e+07   5.49e-29
  1.8628e+07   2.64e-29
  1.9325e+07   1.21e-29
  2.0049e+07   5.10e-30
  2.0799e+07   1.94e-30
  2.1578e+07   6.85e-31
  2.2386e+07   2.14e-31
  2.3224e+07   5.77e-32
  2.4093e+07   1.37e-32
  2.4995e+07   2.71e-33
  2.5930e+07   4.31e-34
  2.6901e+07   5.48e-35
  2.7908e+07   5.27e-36
  2.8953e+07   3.59e-37
  3.0037e+07   1.66e-38
  3.1161e+07   4.83e-40
  3.2327e+07   7.91e-42
  3.3537e+07   6.60e-44
  3.4793e+07   2.45e-46
  3.6095e+07   3.32e-49
  3.7446e+07   1.32e-52
  3.8848e+07   1.18e-56
  4.0302e+07   1.62e-61
  4.1811e+07   4.41e-67
  4.3376e+07   4.14e-67
  4.5000e+07   3.89e-67
