#  E [MeV]   Flux [# cm^{-2} s^{-1}  MeV^{-1}]
  3.0000e+04   2.83e-25
  3.1141e+04   2.71e-25
  3.2326e+04   2.59e-25
  3.3556e+04   2.47e-25
  3.4832e+04   2.36e-25
  3.6157e+04   2.25e-25
  3.7533e+04   2.15e-25
  3.8961e+04   2.05e-25
  4.0443e+04   1.96e-25
  4.1982e+04   1.87e-25
  4.3579e+04   1.78e-25
  4.5237e+04   1.70e-25
  4.6958e+04   1.62e-25
  4.8744e+04   1.54e-25
  5.0598e+04   1.47e-25
  5.2523e+04   1.40e-25
  5.4521e+04   1.34e-25
  5.6596e+04   1.27e-25
  5.8749e+04   1.21e-25
  6.0984e+04   1.15e-25
  6.3304e+04   1.10e-25
  6.5712e+04   1.05e-25
  6.8212e+04   9.96e-26
  7.0807e+04   9.47e-26
  7.3500e+04   9.01e-26
  7.6297e+04   8.57e-26
  7.9199e+04   8.16e-26
  8.2212e+04   7.75e-26
  8.5340e+04   7.37e-26
  8.8586e+04   7.01e-26
  9.1956e+04   6.66e-26
  9.5455e+04   6.33e-26
  9.9086e+04   6.01e-26
  1.0286e+05   5.71e-26
  1.0677e+05   5.42e-26
  1.1083e+05   5.14e-26
  1.1505e+05   4.88e-26
  1.1942e+05   4.63e-26
  1.2397e+05   4.39e-26
  1.2868e+05   4.17e-26
  1.3358e+05   3.95e-26
  1.3866e+05   3.74e-26
  1.4394e+05   3.55e-26
  1.4941e+05   3.36e-26
  1.5509e+05   3.18e-26
  1.6100e+05   3.01e-26
  1.6712e+05   2.85e-26
  1.7348e+05   2.69e-26
  1.8008e+05   2.54e-26
  1.8693e+05   2.40e-26
  1.9404e+05   2.27e-26
  2.0142e+05   2.14e-26
  2.0908e+05   2.02e-26
  2.1704e+05   1.90e-26
  2.2529e+05   1.79e-26
  2.3387e+05   1.69e-26
  2.4276e+05   1.59e-26
  2.5200e+05   1.50e-26
  2.6158e+05   1.40e-26
  2.7154e+05   1.32e-26
  2.8187e+05   1.24e-26
  2.9259e+05   1.16e-26
  3.0372e+05   1.09e-26
  3.1527e+05   1.02e-26
  3.2727e+05   9.51e-27
  3.3972e+05   8.89e-27
  3.5264e+05   8.30e-27
  3.6606e+05   7.73e-27
  3.7998e+05   7.20e-27
  3.9444e+05   6.70e-27
  4.0945e+05   6.23e-27
  4.2502e+05   5.78e-27
  4.4119e+05   5.37e-27
  4.5798e+05   4.97e-27
  4.7540e+05   4.60e-27
  4.9348e+05   4.25e-27
  5.1226e+05   3.93e-27
  5.3175e+05   3.62e-27
  5.5198e+05   3.34e-27
  5.7297e+05   3.07e-27
  5.9477e+05   2.83e-27
  6.1740e+05   2.59e-27
  6.4089e+05   2.38e-27
  6.6527e+05   2.18e-27
  6.9058e+05   2.00e-27
  7.1685e+05   1.83e-27
  7.4412e+05   1.68e-27
  7.7243e+05   1.54e-27
  8.0181e+05   1.41e-27
  8.3232e+05   1.29e-27
  8.6398e+05   1.18e-27
  8.9685e+05   1.08e-27
  9.3097e+05   9.85e-28
  9.6638e+05   9.01e-28
  1.0031e+06   8.24e-28
  1.0413e+06   7.54e-28
  1.0809e+06   6.89e-28
  1.1220e+06   6.31e-28
  1.1647e+06   5.77e-28
  1.2090e+06   5.27e-28
  1.2550e+06   4.82e-28
  1.3028e+06   4.40e-28
  1.3523e+06   4.03e-28
  1.4038e+06   3.68e-28
  1.4572e+06   3.36e-28
  1.5126e+06   3.07e-28
  1.5702e+06   2.81e-28
  1.6299e+06   2.56e-28
  1.6919e+06   2.34e-28
  1.7563e+06   2.14e-28
  1.8231e+06   1.95e-28
  1.8925e+06   1.78e-28
  1.9645e+06   1.62e-28
  2.0392e+06   1.48e-28
  2.1168e+06   1.35e-28
  2.1973e+06   1.23e-28
  2.2809e+06   1.11e-28
  2.3677e+06   1.01e-28
  2.4577e+06   9.18e-29
  2.5512e+06   8.32e-29
  2.6483e+06   7.52e-29
  2.7490e+06   6.80e-29
  2.8536e+06   6.14e-29
  2.9622e+06   5.52e-29
  3.0749e+06   4.98e-29
  3.1918e+06   4.47e-29
  3.3133e+06   3.99e-29
  3.4393e+06   3.58e-29
  3.5702e+06   3.19e-29
  3.7060e+06   2.84e-29
  3.8470e+06   2.52e-29
  3.9933e+06   2.24e-29
  4.1452e+06   1.97e-29
  4.3029e+06   1.74e-29
  4.4666e+06   1.53e-29
  4.6366e+06   1.33e-29
  4.8129e+06   1.17e-29
  4.9960e+06   1.01e-29
  5.1861e+06   8.73e-30
  5.3834e+06   7.54e-30
  5.5882e+06   6.48e-30
  5.8008e+06   5.51e-30
  6.0215e+06   4.69e-30
  6.2506e+06   3.97e-30
  6.4883e+06   3.33e-30
  6.7352e+06   2.79e-30
  6.9914e+06   2.33e-30
  7.2574e+06   1.91e-30
  7.5335e+06   1.57e-30
  7.8201e+06   1.28e-30
  8.1176e+06   1.03e-30
  8.4264e+06   8.28e-31
  8.7470e+06   6.61e-31
  9.0797e+06   5.18e-31
  9.4251e+06   4.02e-31
  9.7837e+06   3.11e-31
  1.0156e+07   2.36e-31
  1.0542e+07   1.76e-31
  1.0943e+07   1.31e-31
  1.1360e+07   9.54e-32
  1.1792e+07   6.78e-32
  1.2240e+07   4.81e-32
  1.2706e+07   3.31e-32
  1.3189e+07   2.20e-32
  1.3691e+07   1.46e-32
  1.4212e+07   9.34e-33
  1.4753e+07   5.71e-33
  1.5314e+07   3.47e-33
  1.5897e+07   2.00e-33
  1.6501e+07   1.09e-33
  1.7129e+07   5.83e-34
  1.7781e+07   2.92e-34
  1.8457e+07   1.36e-34
  1.9159e+07   6.04e-35
  1.9888e+07   2.47e-35
  2.0645e+07   9.07e-36
  2.1430e+07   3.08e-36
  2.2245e+07   9.28e-37
  2.3092e+07   2.41e-37
  2.3970e+07   5.42e-38
  2.4882e+07   1.02e-38
  2.5829e+07   1.54e-39
  2.6811e+07   1.81e-40
  2.7831e+07   1.60e-41
  2.8890e+07   9.85e-43
  2.9989e+07   4.03e-44
  3.1130e+07   1.01e-45
  3.2314e+07   1.38e-47
  3.3544e+07   9.18e-50
  3.4820e+07   2.56e-52
  3.6144e+07   2.44e-55
  3.7519e+07   6.27e-59
  3.8947e+07   3.20e-63
  4.0428e+07   2.19e-68
  4.1966e+07   2.01e-72
  4.3563e+07   1.78e-72
  4.5220e+07   1.57e-72
  4.6941e+07   1.38e-72
  4.8726e+07   1.22e-72
  5.0580e+07   1.08e-72
