#  E [GeV]   # per interaction  [GeV^{-1}]
  3.0000e+01   5.64e-01
  3.1051e+01   5.44e-01
  3.2139e+01   5.25e-01
  3.3266e+01   5.06e-01
  3.4432e+01   4.88e-01
  3.5638e+01   4.70e-01
  3.6887e+01   4.53e-01
  3.8180e+01   4.37e-01
  3.9518e+01   4.21e-01
  4.0903e+01   4.06e-01
  4.2336e+01   3.91e-01
  4.3820e+01   3.77e-01
  4.5355e+01   3.63e-01
  4.6945e+01   3.49e-01
  4.8590e+01   3.36e-01
  5.0293e+01   3.24e-01
  5.2055e+01   3.11e-01
  5.3879e+01   3.00e-01
  5.5767e+01   2.88e-01
  5.7722e+01   2.77e-01
  5.9745e+01   2.66e-01
  6.1838e+01   2.56e-01
  6.4005e+01   2.46e-01
  6.6248e+01   2.37e-01
  6.8570e+01   2.27e-01
  7.0973e+01   2.18e-01
  7.3460e+01   2.10e-01
  7.6034e+01   2.01e-01
  7.8699e+01   1.93e-01
  8.1457e+01   1.85e-01
  8.4311e+01   1.78e-01
  8.7266e+01   1.70e-01
  9.0324e+01   1.63e-01
  9.3490e+01   1.56e-01
  9.6766e+01   1.50e-01
  1.0016e+02   1.43e-01
  1.0367e+02   1.37e-01
  1.0730e+02   1.31e-01
  1.1106e+02   1.25e-01
  1.1495e+02   1.20e-01
  1.1898e+02   1.14e-01
  1.2315e+02   1.09e-01
  1.2747e+02   1.04e-01
  1.3193e+02   9.94e-02
  1.3656e+02   9.48e-02
  1.4134e+02   9.03e-02
  1.4629e+02   8.60e-02
  1.5142e+02   8.19e-02
  1.5673e+02   7.79e-02
  1.6222e+02   7.40e-02
  1.6790e+02   7.03e-02
  1.7379e+02   6.67e-02
  1.7988e+02   6.33e-02
  1.8618e+02   6.00e-02
  1.9271e+02   5.68e-02
  1.9946e+02   5.38e-02
  2.0645e+02   5.09e-02
  2.1369e+02   4.80e-02
  2.2117e+02   4.54e-02
  2.2892e+02   4.28e-02
  2.3695e+02   4.03e-02
  2.4525e+02   3.79e-02
  2.5385e+02   3.57e-02
  2.6274e+02   3.35e-02
  2.7195e+02   3.15e-02
  2.8148e+02   2.95e-02
  2.9134e+02   2.76e-02
  3.0155e+02   2.59e-02
  3.1212e+02   2.42e-02
  3.2306e+02   2.26e-02
  3.3438e+02   2.10e-02
  3.4610e+02   1.96e-02
  3.5823e+02   1.82e-02
  3.7078e+02   1.69e-02
  3.8377e+02   1.57e-02
  3.9722e+02   1.45e-02
  4.1114e+02   1.35e-02
  4.2555e+02   1.24e-02
  4.4046e+02   1.15e-02
  4.5590e+02   1.06e-02
  4.7188e+02   9.78e-03
  4.8841e+02   9.00e-03
  5.0553e+02   8.28e-03
  5.2324e+02   7.60e-03
  5.4158e+02   6.98e-03
  5.6056e+02   6.40e-03
  5.8020e+02   5.86e-03
  6.0054e+02   5.36e-03
  6.2158e+02   4.91e-03
  6.4337e+02   4.48e-03
  6.6591e+02   4.09e-03
  6.8925e+02   3.73e-03
  7.1340e+02   3.39e-03
  7.3840e+02   3.09e-03
  7.6428e+02   2.81e-03
  7.9106e+02   2.56e-03
  8.1878e+02   2.32e-03
  8.4748e+02   2.11e-03
  8.7718e+02   1.92e-03
  9.0792e+02   1.74e-03
  9.3973e+02   1.58e-03
  9.7267e+02   1.43e-03
  1.0068e+03   1.30e-03
  1.0420e+03   1.18e-03
  1.0785e+03   1.07e-03
  1.1163e+03   9.70e-04
  1.1555e+03   8.78e-04
  1.1960e+03   7.97e-04
  1.2379e+03   7.23e-04
  1.2813e+03   6.55e-04
  1.3262e+03   5.93e-04
  1.3726e+03   5.38e-04
  1.4207e+03   4.87e-04
  1.4705e+03   4.41e-04
  1.5220e+03   3.99e-04
  1.5754e+03   3.61e-04
  1.6306e+03   3.26e-04
  1.6877e+03   2.96e-04
  1.7469e+03   2.68e-04
  1.8081e+03   2.42e-04
  1.8715e+03   2.19e-04
  1.9370e+03   1.98e-04
  2.0049e+03   1.78e-04
  2.0752e+03   1.61e-04
  2.1479e+03   1.45e-04
  2.2232e+03   1.31e-04
  2.3011e+03   1.18e-04
  2.3817e+03   1.06e-04
  2.4652e+03   9.54e-05
  2.5516e+03   8.55e-05
  2.6410e+03   7.68e-05
  2.7336e+03   6.88e-05
  2.8294e+03   6.15e-05
  2.9285e+03   5.48e-05
  3.0311e+03   4.90e-05
  3.1374e+03   4.36e-05
  3.2473e+03   3.86e-05
  3.3611e+03   3.44e-05
  3.4789e+03   3.05e-05
  3.6008e+03   2.69e-05
  3.7270e+03   2.38e-05
  3.8576e+03   2.10e-05
  3.9928e+03   1.84e-05
  4.1327e+03   1.61e-05
  4.2775e+03   1.41e-05
  4.4274e+03   1.23e-05
  4.5826e+03   1.06e-05
  4.7432e+03   9.26e-06
  4.9094e+03   8.01e-06
  5.0815e+03   6.88e-06
  5.2595e+03   5.90e-06
  5.4438e+03   5.06e-06
  5.6346e+03   4.30e-06
  5.8321e+03   3.63e-06
  6.0365e+03   3.08e-06
  6.2480e+03   2.59e-06
  6.4670e+03   2.15e-06
  6.6936e+03   1.80e-06
  6.9282e+03   1.49e-06
  7.1709e+03   1.22e-06
  7.4222e+03   9.98e-07
  7.6823e+03   8.14e-07
  7.9516e+03   6.55e-07
  8.2302e+03   5.21e-07
  8.5186e+03   4.16e-07
  8.8172e+03   3.27e-07
  9.1262e+03   2.53e-07
  9.4460e+03   1.96e-07
  9.7770e+03   1.50e-07
  1.0120e+04   1.12e-07
  1.0474e+04   8.36e-08
  1.0841e+04   6.16e-08
  1.1221e+04   4.44e-08
  1.1614e+04   3.13e-08
  1.2022e+04   2.20e-08
  1.2443e+04   1.50e-08
  1.2879e+04   9.88e-09
  1.3330e+04   6.48e-09
  1.3797e+04   4.13e-09
  1.4281e+04   2.53e-09
  1.4781e+04   1.51e-09
  1.5299e+04   8.79e-10
  1.5835e+04   4.87e-10
  1.6390e+04   2.57e-10
  1.6965e+04   1.33e-10
  1.7559e+04   6.44e-11
  1.8175e+04   2.91e-11
  1.8812e+04   1.25e-11
  1.9471e+04   5.00e-12
  2.0153e+04   1.82e-12
  2.0859e+04   6.01e-13
  2.1590e+04   1.80e-13
  2.2347e+04   4.69e-14
  2.3130e+04   1.05e-14
  2.3941e+04   2.02e-15
  2.4780e+04   3.18e-16
  2.5648e+04   3.98e-17
  2.6547e+04   3.85e-18
  2.7477e+04   2.76e-19
  2.8440e+04   1.38e-20
