#  E [GeV]   # per interaction  [GeV^{-1}]
  3.0000e+01   2.59e-02
  3.1141e+01   2.49e-02
  3.2326e+01   2.39e-02
  3.3556e+01   2.30e-02
  3.4832e+01   2.21e-02
  3.6157e+01   2.13e-02
  3.7533e+01   2.05e-02
  3.8961e+01   1.97e-02
  4.0443e+01   1.89e-02
  4.1982e+01   1.81e-02
  4.3579e+01   1.74e-02
  4.5237e+01   1.67e-02
  4.6958e+01   1.61e-02
  4.8744e+01   1.54e-02
  5.0598e+01   1.48e-02
  5.2523e+01   1.42e-02
  5.4521e+01   1.36e-02
  5.6596e+01   1.30e-02
  5.8749e+01   1.25e-02
  6.0984e+01   1.20e-02
  6.3304e+01   1.15e-02
  6.5712e+01   1.10e-02
  6.8212e+01   1.05e-02
  7.0807e+01   1.01e-02
  7.3500e+01   9.66e-03
  7.6297e+01   9.24e-03
  7.9199e+01   8.85e-03
  8.2212e+01   8.46e-03
  8.5340e+01   8.09e-03
  8.8586e+01   7.74e-03
  9.1956e+01   7.40e-03
  9.5455e+01   7.07e-03
  9.9086e+01   6.75e-03
  1.0286e+02   6.45e-03
  1.0677e+02   6.16e-03
  1.1083e+02   5.88e-03
  1.1505e+02   5.61e-03
  1.1942e+02   5.35e-03
  1.2397e+02   5.10e-03
  1.2868e+02   4.86e-03
  1.3358e+02   4.64e-03
  1.3866e+02   4.42e-03
  1.4394e+02   4.21e-03
  1.4941e+02   4.01e-03
  1.5509e+02   3.81e-03
  1.6100e+02   3.63e-03
  1.6712e+02   3.45e-03
  1.7348e+02   3.28e-03
  1.8008e+02   3.12e-03
  1.8693e+02   2.96e-03
  1.9404e+02   2.81e-03
  2.0142e+02   2.67e-03
  2.0908e+02   2.53e-03
  2.1704e+02   2.40e-03
  2.2529e+02   2.28e-03
  2.3387e+02   2.16e-03
  2.4276e+02   2.04e-03
  2.5200e+02   1.93e-03
  2.6158e+02   1.83e-03
  2.7154e+02   1.73e-03
  2.8187e+02   1.63e-03
  2.9259e+02   1.54e-03
  3.0372e+02   1.46e-03
  3.1527e+02   1.37e-03
  3.2727e+02   1.29e-03
  3.3972e+02   1.22e-03
  3.5264e+02   1.15e-03
  3.6606e+02   1.08e-03
  3.7998e+02   1.02e-03
  3.9444e+02   9.57e-04
  4.0945e+02   8.99e-04
  4.2502e+02   8.45e-04
  4.4119e+02   7.93e-04
  4.5798e+02   7.44e-04
  4.7540e+02   6.99e-04
  4.9348e+02   6.55e-04
  5.1226e+02   6.14e-04
  5.3175e+02   5.76e-04
  5.5198e+02   5.39e-04
  5.7297e+02   5.05e-04
  5.9477e+02   4.73e-04
  6.1740e+02   4.44e-04
  6.4089e+02   4.16e-04
  6.6527e+02   3.90e-04
  6.9058e+02   3.65e-04
  7.1685e+02   3.43e-04
  7.4412e+02   3.21e-04
  7.7243e+02   3.02e-04
  8.0181e+02   2.83e-04
  8.3232e+02   2.66e-04
  8.6398e+02   2.50e-04
  8.9685e+02   2.35e-04
  9.3097e+02   2.22e-04
  9.6638e+02   2.09e-04
  1.0031e+03   1.97e-04
  1.0413e+03   1.86e-04
  1.0809e+03   1.76e-04
  1.1220e+03   1.66e-04
  1.1647e+03   1.57e-04
  1.2090e+03   1.49e-04
  1.2550e+03   1.41e-04
  1.3028e+03   1.34e-04
  1.3523e+03   1.28e-04
  1.4038e+03   1.21e-04
  1.4572e+03   1.16e-04
  1.5126e+03   1.10e-04
  1.5702e+03   1.05e-04
  1.6299e+03   1.00e-04
  1.6919e+03   9.58e-05
  1.7563e+03   9.16e-05
  1.8231e+03   8.77e-05
  1.8925e+03   8.39e-05
  1.9645e+03   8.04e-05
  2.0392e+03   7.70e-05
  2.1168e+03   7.38e-05
  2.1973e+03   7.08e-05
  2.2809e+03   6.79e-05
  2.3677e+03   6.51e-05
  2.4577e+03   6.24e-05
  2.5512e+03   5.98e-05
  2.6483e+03   5.73e-05
  2.7490e+03   5.49e-05
  2.8536e+03   5.25e-05
  2.9622e+03   5.02e-05
  3.0749e+03   4.80e-05
  3.1918e+03   4.58e-05
  3.3133e+03   4.37e-05
  3.4393e+03   4.16e-05
  3.5702e+03   3.95e-05
  3.7060e+03   3.75e-05
  3.8470e+03   3.55e-05
  3.9933e+03   3.36e-05
  4.1452e+03   3.17e-05
  4.3029e+03   2.99e-05
  4.4666e+03   2.81e-05
  4.6366e+03   2.63e-05
  4.8129e+03   2.45e-05
  4.9960e+03   2.28e-05
  5.1861e+03   2.12e-05
  5.3834e+03   1.96e-05
  5.5882e+03   1.80e-05
  5.8008e+03   1.65e-05
  6.0215e+03   1.51e-05
  6.2506e+03   1.37e-05
  6.4883e+03   1.24e-05
  6.7352e+03   1.11e-05
  6.9914e+03   9.90e-06
  7.2574e+03   8.78e-06
  7.5335e+03   7.72e-06
  7.8201e+03   6.74e-06
  8.1176e+03   5.83e-06
  8.4264e+03   5.00e-06
  8.7470e+03   4.24e-06
  9.0797e+03   3.56e-06
  9.4251e+03   2.95e-06
  9.7837e+03   2.41e-06
  1.0156e+04   1.95e-06
  1.0542e+04   1.54e-06
  1.0943e+04   1.20e-06
  1.1360e+04   9.22e-07
  1.1792e+04   6.91e-07
  1.2240e+04   5.06e-07
  1.2706e+04   3.62e-07
  1.3189e+04   2.51e-07
  1.3691e+04   1.69e-07
  1.4212e+04   1.10e-07
  1.4753e+04   6.87e-08
  1.5314e+04   4.11e-08
  1.5897e+04   2.35e-08
  1.6501e+04   1.27e-08
  1.7129e+04   6.47e-09
  1.7781e+04   3.08e-09
  1.8457e+04   1.35e-09
  1.9159e+04   5.44e-10
  1.9888e+04   1.98e-10
  2.0645e+04   6.43e-11
  2.1430e+04   1.83e-11
  2.2245e+04   4.50e-12
  2.3092e+04   9.29e-13
  2.3970e+04   1.58e-13
  2.4882e+04   2.12e-14
  2.5829e+04   2.18e-15
  2.6811e+04   1.65e-16
  2.7831e+04   8.63e-18
  2.8890e+04   2.92e-19
  2.9989e+04   5.97e-21
  3.1130e+04   6.63e-23
  3.2314e+04   3.54e-25
  3.3544e+04   8.03e-28
  3.4820e+04   6.37e-31
  3.6144e+04   1.40e-34
  3.7519e+04   6.67e-39
  3.8947e+04   4.76e-44
  4.0428e+04   1.59e-46
  4.1966e+04   1.38e-46
  4.3563e+04   1.22e-46
  4.5220e+04   1.06e-46
  4.6941e+04   9.48e-47
  4.8726e+04   8.70e-47
  5.0580e+04   7.97e-47
