#  E [GeV]   # per interaction  [GeV^{-1}]
  3.0000e+01   5.42e-01
  3.1141e+01   5.20e-01
  3.2326e+01   5.00e-01
  3.3556e+01   4.80e-01
  3.4832e+01   4.60e-01
  3.6157e+01   4.42e-01
  3.7533e+01   4.24e-01
  3.8961e+01   4.07e-01
  4.0443e+01   3.91e-01
  4.1982e+01   3.75e-01
  4.3579e+01   3.60e-01
  4.5237e+01   3.45e-01
  4.6958e+01   3.31e-01
  4.8744e+01   3.18e-01
  5.0598e+01   3.05e-01
  5.2523e+01   2.92e-01
  5.4521e+01   2.80e-01
  5.6596e+01   2.69e-01
  5.8749e+01   2.58e-01
  6.0984e+01   2.47e-01
  6.3304e+01   2.37e-01
  6.5712e+01   2.27e-01
  6.8212e+01   2.18e-01
  7.0807e+01   2.09e-01
  7.3500e+01   2.00e-01
  7.6297e+01   1.92e-01
  7.9199e+01   1.83e-01
  8.2212e+01   1.76e-01
  8.5340e+01   1.68e-01
  8.8586e+01   1.61e-01
  9.1956e+01   1.54e-01
  9.5455e+01   1.47e-01
  9.9086e+01   1.41e-01
  1.0286e+02   1.35e-01
  1.0677e+02   1.29e-01
  1.1083e+02   1.23e-01
  1.1505e+02   1.18e-01
  1.1942e+02   1.13e-01
  1.2397e+02   1.08e-01
  1.2868e+02   1.03e-01
  1.3358e+02   9.83e-02
  1.3866e+02   9.39e-02
  1.4394e+02   8.96e-02
  1.4941e+02   8.55e-02
  1.5509e+02   8.15e-02
  1.6100e+02   7.77e-02
  1.6712e+02   7.41e-02
  1.7348e+02   7.06e-02
  1.8008e+02   6.72e-02
  1.8693e+02   6.39e-02
  1.9404e+02   6.08e-02
  2.0142e+02   5.79e-02
  2.0908e+02   5.50e-02
  2.1704e+02   5.23e-02
  2.2529e+02   4.96e-02
  2.3387e+02   4.71e-02
  2.4276e+02   4.47e-02
  2.5200e+02   4.24e-02
  2.6158e+02   4.02e-02
  2.7154e+02   3.80e-02
  2.8187e+02   3.60e-02
  2.9259e+02   3.41e-02
  3.0372e+02   3.22e-02
  3.1527e+02   3.04e-02
  3.2727e+02   2.87e-02
  3.3972e+02   2.71e-02
  3.5264e+02   2.55e-02
  3.6606e+02   2.41e-02
  3.7998e+02   2.27e-02
  3.9444e+02   2.13e-02
  4.0945e+02   2.00e-02
  4.2502e+02   1.88e-02
  4.4119e+02   1.77e-02
  4.5798e+02   1.66e-02
  4.7540e+02   1.55e-02
  4.9348e+02   1.46e-02
  5.1226e+02   1.36e-02
  5.3175e+02   1.28e-02
  5.5198e+02   1.19e-02
  5.7297e+02   1.11e-02
  5.9477e+02   1.04e-02
  6.1740e+02   9.71e-03
  6.4089e+02   9.06e-03
  6.6527e+02   8.44e-03
  6.9058e+02   7.86e-03
  7.1685e+02   7.32e-03
  7.4412e+02   6.81e-03
  7.7243e+02   6.33e-03
  8.0181e+02   5.89e-03
  8.3232e+02   5.47e-03
  8.6398e+02   5.08e-03
  8.9685e+02   4.72e-03
  9.3097e+02   4.38e-03
  9.6638e+02   4.07e-03
  1.0031e+03   3.78e-03
  1.0413e+03   3.50e-03
  1.0809e+03   3.25e-03
  1.1220e+03   3.01e-03
  1.1647e+03   2.79e-03
  1.2090e+03   2.59e-03
  1.2550e+03   2.40e-03
  1.3028e+03   2.22e-03
  1.3523e+03   2.05e-03
  1.4038e+03   1.90e-03
  1.4572e+03   1.76e-03
  1.5126e+03   1.63e-03
  1.5702e+03   1.50e-03
  1.6299e+03   1.39e-03
  1.6919e+03   1.28e-03
  1.7563e+03   1.19e-03
  1.8231e+03   1.10e-03
  1.8925e+03   1.01e-03
  1.9645e+03   9.34e-04
  2.0392e+03   8.62e-04
  2.1168e+03   7.94e-04
  2.1973e+03   7.32e-04
  2.2809e+03   6.74e-04
  2.3677e+03   6.21e-04
  2.4577e+03   5.71e-04
  2.5512e+03   5.25e-04
  2.6483e+03   4.82e-04
  2.7490e+03   4.42e-04
  2.8536e+03   4.05e-04
  2.9622e+03   3.71e-04
  3.0749e+03   3.39e-04
  3.1918e+03   3.11e-04
  3.3133e+03   2.84e-04
  3.4393e+03   2.59e-04
  3.5702e+03   2.36e-04
  3.7060e+03   2.15e-04
  3.8470e+03   1.95e-04
  3.9933e+03   1.77e-04
  4.1452e+03   1.61e-04
  4.3029e+03   1.45e-04
  4.4666e+03   1.32e-04
  4.6366e+03   1.19e-04
  4.8129e+03   1.07e-04
  4.9960e+03   9.62e-05
  5.1861e+03   8.63e-05
  5.3834e+03   7.71e-05
  5.5882e+03   6.90e-05
  5.8008e+03   6.15e-05
  6.0215e+03   5.46e-05
  6.2506e+03   4.85e-05
  6.4883e+03   4.30e-05
  6.7352e+03   3.78e-05
  6.9914e+03   3.33e-05
  7.2574e+03   2.92e-05
  7.5335e+03   2.55e-05
  7.8201e+03   2.22e-05
  8.1176e+03   1.93e-05
  8.4264e+03   1.66e-05
  8.7470e+03   1.43e-05
  9.0797e+03   1.23e-05
  9.4251e+03   1.04e-05
  9.7837e+03   8.83e-06
  1.0156e+04   7.46e-06
  1.0542e+04   6.23e-06
  1.0943e+04   5.16e-06
  1.1360e+04   4.27e-06
  1.1792e+04   3.49e-06
  1.2240e+04   2.81e-06
  1.2706e+04   2.27e-06
  1.3189e+04   1.80e-06
  1.3691e+04   1.40e-06
  1.4212e+04   1.10e-06
  1.4753e+04   8.36e-07
  1.5314e+04   6.24e-07
  1.5897e+04   4.65e-07
  1.6501e+04   3.37e-07
  1.7129e+04   2.37e-07
  1.7781e+04   1.65e-07
  1.8457e+04   1.11e-07
  1.9159e+04   7.20e-08
  1.9888e+04   4.56e-08
  2.0645e+04   2.76e-08
  2.1430e+04   1.57e-08
  2.2245e+04   8.63e-09
  2.3092e+04   4.44e-09
  2.3970e+04   2.10e-09
  2.4882e+04   9.28e-10
  2.5829e+04   3.72e-10
  2.6811e+04   1.31e-10
  2.7831e+04   4.08e-11
  2.8890e+04   1.09e-11
  2.9989e+04   2.35e-12
  3.1130e+04   4.08e-13
  3.2314e+04   5.39e-14
  3.3544e+04   4.99e-15
  3.4820e+04   3.05e-16
  3.6144e+04   1.13e-17
  3.7519e+04   2.19e-19
  3.8947e+04   1.90e-21
  4.0428e+04   6.26e-24
  4.1966e+04   5.71e-27
  4.3563e+04   1.03e-30
  4.5220e+04   2.34e-35
  4.6941e+04   3.50e-41
  4.8726e+04   2.78e-48
  5.0580e+04   2.10e-48
