#  E [GeV]   # per interaction  [GeV^{-1}]
  3.0000e+01   6.21e-01
  3.1123e+01   5.97e-01
  3.2288e+01   5.74e-01
  3.3497e+01   5.52e-01
  3.4751e+01   5.31e-01
  3.6051e+01   5.10e-01
  3.7401e+01   4.90e-01
  3.8801e+01   4.71e-01
  4.0253e+01   4.53e-01
  4.1760e+01   4.35e-01
  4.3324e+01   4.18e-01
  4.4945e+01   4.02e-01
  4.6628e+01   3.86e-01
  4.8373e+01   3.71e-01
  5.0184e+01   3.56e-01
  5.2063e+01   3.42e-01
  5.4011e+01   3.29e-01
  5.6033e+01   3.16e-01
  5.8131e+01   3.03e-01
  6.0307e+01   2.91e-01
  6.2564e+01   2.79e-01
  6.4906e+01   2.68e-01
  6.7336e+01   2.57e-01
  6.9857e+01   2.46e-01
  7.2472e+01   2.36e-01
  7.5184e+01   2.27e-01
  7.7999e+01   2.17e-01
  8.0919e+01   2.08e-01
  8.3948e+01   1.99e-01
  8.7090e+01   1.91e-01
  9.0350e+01   1.83e-01
  9.3732e+01   1.75e-01
  9.7241e+01   1.68e-01
  1.0088e+02   1.60e-01
  1.0466e+02   1.53e-01
  1.0858e+02   1.47e-01
  1.1264e+02   1.40e-01
  1.1686e+02   1.34e-01
  1.2123e+02   1.28e-01
  1.2577e+02   1.22e-01
  1.3048e+02   1.17e-01
  1.3536e+02   1.11e-01
  1.4043e+02   1.06e-01
  1.4568e+02   1.01e-01
  1.5114e+02   9.64e-02
  1.5680e+02   9.18e-02
  1.6266e+02   8.74e-02
  1.6875e+02   8.31e-02
  1.7507e+02   7.90e-02
  1.8162e+02   7.50e-02
  1.8842e+02   7.13e-02
  1.9548e+02   6.76e-02
  2.0279e+02   6.41e-02
  2.1039e+02   6.07e-02
  2.1826e+02   5.75e-02
  2.2643e+02   5.44e-02
  2.3491e+02   5.14e-02
  2.4370e+02   4.86e-02
  2.5282e+02   4.58e-02
  2.6229e+02   4.32e-02
  2.7211e+02   4.07e-02
  2.8229e+02   3.83e-02
  2.9286e+02   3.60e-02
  3.0382e+02   3.38e-02
  3.1519e+02   3.17e-02
  3.2699e+02   2.97e-02
  3.3923e+02   2.77e-02
  3.5193e+02   2.59e-02
  3.6511e+02   2.42e-02
  3.7877e+02   2.26e-02
  3.9295e+02   2.10e-02
  4.0766e+02   1.96e-02
  4.2292e+02   1.82e-02
  4.3875e+02   1.69e-02
  4.5518e+02   1.57e-02
  4.7222e+02   1.45e-02
  4.8989e+02   1.34e-02
  5.0823e+02   1.24e-02
  5.2726e+02   1.15e-02
  5.4699e+02   1.06e-02
  5.6747e+02   9.73e-03
  5.8871e+02   8.95e-03
  6.1075e+02   8.24e-03
  6.3361e+02   7.57e-03
  6.5733e+02   6.95e-03
  6.8194e+02   6.38e-03
  7.0746e+02   5.85e-03
  7.3395e+02   5.36e-03
  7.6142e+02   4.91e-03
  7.8992e+02   4.49e-03
  8.1949e+02   4.11e-03
  8.5017e+02   3.76e-03
  8.8199e+02   3.44e-03
  9.1501e+02   3.14e-03
  9.4926e+02   2.87e-03
  9.8479e+02   2.63e-03
  1.0217e+03   2.40e-03
  1.0599e+03   2.19e-03
  1.0996e+03   2.00e-03
  1.1407e+03   1.83e-03
  1.1834e+03   1.67e-03
  1.2277e+03   1.52e-03
  1.2737e+03   1.39e-03
  1.3214e+03   1.27e-03
  1.3708e+03   1.16e-03
  1.4222e+03   1.05e-03
  1.4754e+03   9.61e-04
  1.5306e+03   8.78e-04
  1.5879e+03   8.00e-04
  1.6474e+03   7.29e-04
  1.7090e+03   6.65e-04
  1.7730e+03   6.06e-04
  1.8394e+03   5.52e-04
  1.9082e+03   5.03e-04
  1.9797e+03   4.58e-04
  2.0538e+03   4.16e-04
  2.1306e+03   3.79e-04
  2.2104e+03   3.44e-04
  2.2931e+03   3.12e-04
  2.3790e+03   2.83e-04
  2.4680e+03   2.57e-04
  2.5604e+03   2.32e-04
  2.6563e+03   2.10e-04
  2.7557e+03   1.90e-04
  2.8589e+03   1.71e-04
  2.9659e+03   1.54e-04
  3.0769e+03   1.39e-04
  3.1921e+03   1.25e-04
  3.3116e+03   1.12e-04
  3.4355e+03   1.00e-04
  3.5641e+03   8.96e-05
  3.6976e+03   7.98e-05
  3.8360e+03   7.12e-05
  3.9796e+03   6.33e-05
  4.1285e+03   5.60e-05
  4.2831e+03   4.96e-05
  4.4434e+03   4.37e-05
  4.6097e+03   3.84e-05
  4.7823e+03   3.37e-05
  4.9613e+03   2.95e-05
  5.1470e+03   2.56e-05
  5.3397e+03   2.23e-05
  5.5396e+03   1.93e-05
  5.7470e+03   1.66e-05
  5.9621e+03   1.43e-05
  6.1853e+03   1.22e-05
  6.4168e+03   1.04e-05
  6.6570e+03   8.78e-06
  6.9062e+03   7.42e-06
  7.1647e+03   6.21e-06
  7.4329e+03   5.16e-06
  7.7112e+03   4.29e-06
  7.9998e+03   3.52e-06
  8.2993e+03   2.86e-06
  8.6100e+03   2.33e-06
  8.9323e+03   1.87e-06
  9.2666e+03   1.48e-06
  9.6135e+03   1.17e-06
  9.9734e+03   9.13e-07
  1.0347e+04   6.98e-07
  1.0734e+04   5.33e-07
  1.1136e+04   4.00e-07
  1.1553e+04   2.94e-07
  1.1985e+04   2.14e-07
  1.2434e+04   1.53e-07
  1.2899e+04   1.06e-07
  1.3382e+04   7.26e-08
  1.3883e+04   4.86e-08
  1.4403e+04   3.14e-08
  1.4942e+04   1.97e-08
  1.5501e+04   1.20e-08
  1.6081e+04   7.03e-09
  1.6683e+04   3.92e-09
  1.7308e+04   2.11e-09
  1.7956e+04   1.07e-09
  1.8628e+04   5.04e-10
  1.9325e+04   2.26e-10
  2.0049e+04   9.24e-11
  2.0799e+04   3.42e-11
  2.1578e+04   1.17e-11
  2.2386e+04   3.52e-12
  2.3224e+04   9.14e-13
  2.4093e+04   2.07e-13
  2.4995e+04   3.90e-14
  2.5930e+04   5.86e-15
  2.6901e+04   6.99e-16
  2.7908e+04   6.24e-17
  2.8953e+04   3.90e-18
  3.0037e+04   1.64e-19
  3.1161e+04   4.27e-21
  3.2327e+04   6.17e-23
  3.3537e+04   4.45e-25
  3.4793e+04   1.39e-27
  3.6095e+04   1.55e-30
  3.7446e+04   4.91e-34
  3.8848e+04   3.35e-38
  4.0302e+04   3.35e-43
  4.1811e+04   1.09e-47
  4.3376e+04   1.03e-47
  4.5000e+04   9.64e-48
