#  E [MeV]   Flux [# cm^{-2} s^{-1}  MeV^{-1}]
  3.0000e+04   1.21e-23
  3.0782e+04   1.17e-23
  3.1585e+04   1.13e-23
  3.2409e+04   1.09e-23
  3.3255e+04   1.05e-23
  3.4122e+04   1.01e-23
  3.5012e+04   9.79e-24
  3.5925e+04   9.45e-24
  3.6862e+04   9.12e-24
  3.7824e+04   8.80e-24
  3.8810e+04   8.48e-24
  3.9822e+04   8.18e-24
  4.0861e+04   7.89e-24
  4.1927e+04   7.60e-24
  4.3021e+04   7.33e-24
  4.4143e+04   7.06e-24
  4.5294e+04   6.80e-24
  4.6475e+04   6.55e-24
  4.7688e+04   6.31e-24
  4.8931e+04   6.08e-24
  5.0208e+04   5.85e-24
  5.1517e+04   5.63e-24
  5.2861e+04   5.41e-24
  5.4240e+04   5.21e-24
  5.5654e+04   5.00e-24
  5.7106e+04   4.81e-24
  5.8596e+04   4.62e-24
  6.0124e+04   4.44e-24
  6.1692e+04   4.26e-24
  6.3301e+04   4.09e-24
  6.4952e+04   3.92e-24
  6.6647e+04   3.76e-24
  6.8385e+04   3.60e-24
  7.0169e+04   3.45e-24
  7.1999e+04   3.31e-24
  7.3877e+04   3.17e-24
  7.5804e+04   3.04e-24
  7.7781e+04   2.91e-24
  7.9810e+04   2.79e-24
  8.1891e+04   2.67e-24
  8.4027e+04   2.55e-24
  8.6219e+04   2.45e-24
  8.8468e+04   2.34e-24
  9.0775e+04   2.24e-24
  9.3143e+04   2.14e-24
  9.5572e+04   2.05e-24
  9.8065e+04   1.96e-24
  1.0062e+05   1.88e-24
  1.0325e+05   1.80e-24
  1.0594e+05   1.72e-24
  1.0870e+05   1.64e-24
  1.1154e+05   1.57e-24
  1.1445e+05   1.50e-24
  1.1743e+05   1.43e-24
  1.2050e+05   1.36e-24
  1.2364e+05   1.30e-24
  1.2686e+05   1.24e-24
  1.3017e+05   1.18e-24
  1.3357e+05   1.13e-24
  1.3705e+05   1.07e-24
  1.4063e+05   1.02e-24
  1.4429e+05   9.74e-25
  1.4806e+05   9.26e-25
  1.5192e+05   8.81e-25
  1.5588e+05   8.37e-25
  1.5995e+05   7.96e-25
  1.6412e+05   7.56e-25
  1.6840e+05   7.17e-25
  1.7279e+05   6.81e-25
  1.7730e+05   6.46e-25
  1.8193e+05   6.12e-25
  1.8667e+05   5.80e-25
  1.9154e+05   5.49e-25
  1.9654e+05   5.20e-25
  2.0166e+05   4.92e-25
  2.0692e+05   4.66e-25
  2.1232e+05   4.40e-25
  2.1786e+05   4.16e-25
  2.2354e+05   3.93e-25
  2.2937e+05   3.70e-25
  2.3535e+05   3.49e-25
  2.4149e+05   3.29e-25
  2.4779e+05   3.10e-25
  2.5425e+05   2.91e-25
  2.6088e+05   2.74e-25
  2.6769e+05   2.57e-25
  2.7467e+05   2.42e-25
  2.8184e+05   2.27e-25
  2.8919e+05   2.12e-25
  2.9673e+05   1.99e-25
  3.0447e+05   1.86e-25
  3.1241e+05   1.74e-25
  3.2056e+05   1.63e-25
  3.2892e+05   1.52e-25
  3.3750e+05   1.42e-25
  3.4630e+05   1.32e-25
  3.5533e+05   1.23e-25
  3.6460e+05   1.15e-25
  3.7411e+05   1.07e-25
  3.8387e+05   9.91e-26
  3.9388e+05   9.21e-26
  4.0416e+05   8.55e-26
  4.1470e+05   7.91e-26
  4.2551e+05   7.31e-26
  4.3661e+05   6.78e-26
  4.4800e+05   6.27e-26
  4.5969e+05   5.79e-26
  4.7168e+05   5.33e-26
  4.8398e+05   4.91e-26
  4.9660e+05   4.53e-26
  5.0956e+05   4.16e-26
  5.2285e+05   3.81e-26
  5.3648e+05   3.49e-26
  5.5048e+05   3.21e-26
  5.6483e+05   2.94e-26
  5.7957e+05   2.69e-26
  5.9468e+05   2.45e-26
  6.1020e+05   2.24e-26
  6.2611e+05   2.05e-26
  6.4244e+05   1.87e-26
  6.5920e+05   1.70e-26
  6.7639e+05   1.54e-26
  6.9403e+05   1.40e-26
  7.1214e+05   1.28e-26
  7.3071e+05   1.16e-26
  7.4977e+05   1.04e-26
  7.6933e+05   9.48e-27
  7.8939e+05   8.61e-27
  8.0998e+05   7.78e-27
  8.3111e+05   7.01e-27
  8.5279e+05   6.31e-27
  8.7503e+05   5.72e-27
  8.9785e+05   5.16e-27
  9.2127e+05   4.64e-27
  9.4530e+05   4.15e-27
  9.6996e+05   3.74e-27
  9.9526e+05   3.37e-27
  1.0212e+06   3.02e-27
  1.0479e+06   2.70e-27
  1.0752e+06   2.41e-27
  1.1032e+06   2.17e-27
  1.1320e+06   1.94e-27
  1.1615e+06   1.73e-27
  1.1918e+06   1.53e-27
  1.2229e+06   1.37e-27
  1.2548e+06   1.23e-27
  1.2875e+06   1.10e-27
  1.3211e+06   9.70e-28
  1.3556e+06   8.61e-28
  1.3909e+06   7.72e-28
  1.4272e+06   6.87e-28
  1.4644e+06   6.08e-28
  1.5026e+06   5.33e-28
  1.5418e+06   4.78e-28
  1.5820e+06   4.26e-28
  1.6233e+06   3.77e-28
  1.6657e+06   3.31e-28
  1.7091e+06   2.92e-28
  1.7537e+06   2.61e-28
  1.7994e+06   2.31e-28
  1.8464e+06   2.03e-28
  1.8945e+06   1.77e-28
  1.9439e+06   1.58e-28
  1.9946e+06   1.40e-28
  2.0467e+06   1.24e-28
  2.1000e+06   1.08e-28
  2.1548e+06   9.53e-29
  2.2110e+06   8.50e-29
  2.2687e+06   7.53e-29
  2.3279e+06   6.61e-29
  2.3886e+06   5.76e-29
  2.4509e+06   5.17e-29
  2.5148e+06   4.62e-29
  2.5804e+06   4.09e-29
  2.6477e+06   3.59e-29
  2.7168e+06   3.20e-29
  2.7876e+06   2.88e-29
  2.8603e+06   2.57e-29
  2.9349e+06   2.28e-29
  3.0115e+06   2.02e-29
  3.0900e+06   1.84e-29
  3.1706e+06   1.68e-29
  3.2533e+06   1.52e-29
  3.3382e+06   1.36e-29
  3.4253e+06   1.24e-29
  3.5146e+06   1.14e-29
  3.6063e+06   1.05e-29
  3.7003e+06   9.56e-30
  3.7969e+06   8.71e-30
  3.8959e+06   8.00e-30
  3.9975e+06   7.32e-30
  4.1018e+06   6.68e-30
  4.2088e+06   6.07e-30
  4.3185e+06   5.53e-30
  4.4312e+06   5.03e-30
  4.5467e+06   4.56e-30
  4.6653e+06   4.11e-30
  4.7870e+06   3.72e-30
  4.9119e+06   3.42e-30
  5.0400e+06   3.14e-30
