#  E [GeV]   # per interaction  [GeV^{-1}]
  3.0000e+01   7.35e-01
  3.1232e+01   7.03e-01
  3.2514e+01   6.73e-01
  3.3849e+01   6.44e-01
  3.5238e+01   6.16e-01
  3.6685e+01   5.89e-01
  3.8191e+01   5.63e-01
  3.9759e+01   5.38e-01
  4.1391e+01   5.15e-01
  4.3090e+01   4.92e-01
  4.4859e+01   4.71e-01
  4.6701e+01   4.50e-01
  4.8618e+01   4.30e-01
  5.0614e+01   4.11e-01
  5.2692e+01   3.93e-01
  5.4855e+01   3.75e-01
  5.7107e+01   3.59e-01
  5.9451e+01   3.43e-01
  6.1892e+01   3.27e-01
  6.4433e+01   3.13e-01
  6.7078e+01   2.99e-01
  6.9832e+01   2.85e-01
  7.2699e+01   2.72e-01
  7.5683e+01   2.60e-01
  7.8790e+01   2.48e-01
  8.2025e+01   2.37e-01
  8.5392e+01   2.26e-01
  8.8898e+01   2.16e-01
  9.2547e+01   2.06e-01
  9.6347e+01   1.96e-01
  1.0030e+02   1.87e-01
  1.0442e+02   1.79e-01
  1.0871e+02   1.70e-01
  1.1317e+02   1.62e-01
  1.1782e+02   1.54e-01
  1.2265e+02   1.47e-01
  1.2769e+02   1.40e-01
  1.3293e+02   1.33e-01
  1.3839e+02   1.27e-01
  1.4407e+02   1.21e-01
  1.4998e+02   1.15e-01
  1.5614e+02   1.09e-01
  1.6255e+02   1.04e-01
  1.6922e+02   9.83e-02
  1.7617e+02   9.33e-02
  1.8340e+02   8.85e-02
  1.9093e+02   8.39e-02
  1.9877e+02   7.94e-02
  2.0693e+02   7.52e-02
  2.1543e+02   7.11e-02
  2.2427e+02   6.72e-02
  2.3348e+02   6.35e-02
  2.4306e+02   5.99e-02
  2.5304e+02   5.65e-02
  2.6343e+02   5.33e-02
  2.7424e+02   5.01e-02
  2.8550e+02   4.71e-02
  2.9722e+02   4.43e-02
  3.0942e+02   4.15e-02
  3.2213e+02   3.89e-02
  3.3535e+02   3.64e-02
  3.4912e+02   3.41e-02
  3.6345e+02   3.18e-02
  3.7837e+02   2.97e-02
  3.9390e+02   2.77e-02
  4.1008e+02   2.58e-02
  4.2691e+02   2.39e-02
  4.4444e+02   2.22e-02
  4.6268e+02   2.06e-02
  4.8168e+02   1.91e-02
  5.0145e+02   1.77e-02
  5.2204e+02   1.64e-02
  5.4347e+02   1.51e-02
  5.6578e+02   1.39e-02
  5.8901e+02   1.28e-02
  6.1319e+02   1.18e-02
  6.3836e+02   1.09e-02
  6.6457e+02   9.97e-03
  6.9185e+02   9.16e-03
  7.2025e+02   8.40e-03
  7.4982e+02   7.71e-03
  7.8061e+02   7.06e-03
  8.1265e+02   6.47e-03
  8.4601e+02   5.92e-03
  8.8075e+02   5.42e-03
  9.1690e+02   4.96e-03
  9.5455e+02   4.54e-03
  9.9373e+02   4.15e-03
  1.0345e+03   3.80e-03
  1.0770e+03   3.48e-03
  1.1212e+03   3.18e-03
  1.1672e+03   2.91e-03
  1.2152e+03   2.66e-03
  1.2650e+03   2.43e-03
  1.3170e+03   2.22e-03
  1.3711e+03   2.04e-03
  1.4273e+03   1.86e-03
  1.4859e+03   1.71e-03
  1.5469e+03   1.56e-03
  1.6104e+03   1.43e-03
  1.6766e+03   1.31e-03
  1.7454e+03   1.20e-03
  1.8170e+03   1.10e-03
  1.8916e+03   1.01e-03
  1.9693e+03   9.20e-04
  2.0501e+03   8.42e-04
  2.1343e+03   7.69e-04
  2.2219e+03   7.03e-04
  2.3131e+03   6.42e-04
  2.4081e+03   5.86e-04
  2.5070e+03   5.34e-04
  2.6099e+03   4.86e-04
  2.7170e+03   4.43e-04
  2.8286e+03   4.02e-04
  2.9447e+03   3.65e-04
  3.0656e+03   3.31e-04
  3.1914e+03   3.00e-04
  3.3225e+03   2.71e-04
  3.4589e+03   2.45e-04
  3.6008e+03   2.20e-04
  3.7487e+03   1.98e-04
  3.9026e+03   1.78e-04
  4.0628e+03   1.59e-04
  4.2296e+03   1.42e-04
  4.4032e+03   1.26e-04
  4.5840e+03   1.12e-04
  4.7722e+03   9.88e-05
  4.9681e+03   8.72e-05
  5.1720e+03   7.64e-05
  5.3844e+03   6.69e-05
  5.6054e+03   5.83e-05
  5.8355e+03   5.05e-05
  6.0751e+03   4.37e-05
  6.3245e+03   3.75e-05
  6.5841e+03   3.20e-05
  6.8544e+03   2.72e-05
  7.1358e+03   2.30e-05
  7.4288e+03   1.92e-05
  7.7338e+03   1.60e-05
  8.0513e+03   1.32e-05
  8.3818e+03   1.08e-05
  8.7259e+03   8.78e-06
  9.0841e+03   7.04e-06
  9.4571e+03   5.57e-06
  9.8453e+03   4.38e-06
  1.0249e+04   3.37e-06
  1.0670e+04   2.57e-06
  1.1108e+04   1.93e-06
  1.1564e+04   1.41e-06
  1.2039e+04   1.02e-06
  1.2533e+04   7.20e-07
  1.3048e+04   4.93e-07
  1.3584e+04   3.31e-07
  1.4141e+04   2.15e-07
  1.4722e+04   1.34e-07
  1.5326e+04   8.09e-08
  1.5955e+04   4.66e-08
  1.6610e+04   2.54e-08
  1.7292e+04   1.32e-08
  1.8002e+04   6.37e-09
  1.8741e+04   2.85e-09
  1.9511e+04   1.18e-09
  2.0312e+04   4.40e-10
  2.1145e+04   1.46e-10
  2.2013e+04   4.29e-11
  2.2917e+04   1.07e-11
  2.3858e+04   2.23e-12
  2.4837e+04   3.78e-13
  2.5857e+04   4.94e-14
  2.6919e+04   4.83e-15
  2.8024e+04   3.32e-16
  2.9174e+04   1.47e-17
  3.0372e+04   3.97e-19
  3.1619e+04   5.75e-21
  3.2917e+04   3.86e-23
  3.4268e+04   1.05e-25
  3.5675e+04   8.96e-29
  3.7140e+04   1.84e-32
  3.8664e+04   6.52e-37
  4.0252e+04   2.44e-42
  4.1904e+04   4.72e-47
  4.3624e+04   4.07e-47
  4.5415e+04   3.45e-47
  4.7280e+04   2.93e-47
  4.9221e+04   2.53e-47
  5.1241e+04   2.15e-47
  5.3345e+04   1.84e-47
  5.5535e+04   1.60e-47
  5.7815e+04   1.37e-47
  6.0188e+04   1.19e-47
  6.2659e+04   1.04e-47
  6.5232e+04   8.98e-48
  6.7910e+04   7.93e-48
  7.0698e+04   7.05e-48
  7.3600e+04   6.22e-48
  7.6621e+04   5.60e-48
  7.9767e+04   5.04e-48
  8.3042e+04   4.52e-48
  8.6451e+04   4.13e-48
  9.0000e+04   3.78e-48
