#  E [GeV]   # per interaction  [GeV^{-1}]
  3.0000e+01   1.37e+00
  3.1232e+01   1.30e+00
  3.2514e+01   1.24e+00
  3.3849e+01   1.19e+00
  3.5238e+01   1.13e+00
  3.6685e+01   1.08e+00
  3.8191e+01   1.03e+00
  3.9759e+01   9.78e-01
  4.1391e+01   9.32e-01
  4.3090e+01   8.88e-01
  4.4859e+01   8.46e-01
  4.6701e+01   8.05e-01
  4.8618e+01   7.67e-01
  5.0614e+01   7.30e-01
  5.2692e+01   6.95e-01
  5.4855e+01   6.61e-01
  5.7107e+01   6.29e-01
  5.9451e+01   5.98e-01
  6.1892e+01   5.69e-01
  6.4433e+01   5.41e-01
  6.7078e+01   5.14e-01
  6.9832e+01   4.89e-01
  7.2699e+01   4.64e-01
  7.5683e+01   4.41e-01
  7.8790e+01   4.19e-01
  8.2025e+01   3.98e-01
  8.5392e+01   3.78e-01
  8.8898e+01   3.58e-01
  9.2547e+01   3.40e-01
  9.6347e+01   3.23e-01
  1.0030e+02   3.06e-01
  1.0442e+02   2.90e-01
  1.0871e+02   2.75e-01
  1.1317e+02   2.61e-01
  1.1782e+02   2.47e-01
  1.2265e+02   2.34e-01
  1.2769e+02   2.22e-01
  1.3293e+02   2.10e-01
  1.3839e+02   1.99e-01
  1.4407e+02   1.88e-01
  1.4998e+02   1.78e-01
  1.5614e+02   1.68e-01
  1.6255e+02   1.59e-01
  1.6922e+02   1.50e-01
  1.7617e+02   1.42e-01
  1.8340e+02   1.34e-01
  1.9093e+02   1.26e-01
  1.9877e+02   1.19e-01
  2.0693e+02   1.12e-01
  2.1543e+02   1.06e-01
  2.2427e+02   9.96e-02
  2.3348e+02   9.37e-02
  2.4306e+02   8.81e-02
  2.5304e+02   8.29e-02
  2.6343e+02   7.79e-02
  2.7424e+02   7.31e-02
  2.8550e+02   6.86e-02
  2.9722e+02   6.43e-02
  3.0942e+02   6.03e-02
  3.2213e+02   5.64e-02
  3.3535e+02   5.28e-02
  3.4912e+02   4.93e-02
  3.6345e+02   4.61e-02
  3.7837e+02   4.30e-02
  3.9390e+02   4.01e-02
  4.1008e+02   3.74e-02
  4.2691e+02   3.48e-02
  4.4444e+02   3.24e-02
  4.6268e+02   3.01e-02
  4.8168e+02   2.80e-02
  5.0145e+02   2.60e-02
  5.2204e+02   2.41e-02
  5.4347e+02   2.23e-02
  5.6578e+02   2.07e-02
  5.8901e+02   1.91e-02
  6.1319e+02   1.77e-02
  6.3836e+02   1.63e-02
  6.6457e+02   1.51e-02
  6.9185e+02   1.39e-02
  7.2025e+02   1.28e-02
  7.4982e+02   1.18e-02
  7.8061e+02   1.09e-02
  8.1265e+02   1.00e-02
  8.4601e+02   9.21e-03
  8.8075e+02   8.48e-03
  9.1690e+02   7.79e-03
  9.5455e+02   7.16e-03
  9.9373e+02   6.59e-03
  1.0345e+03   6.05e-03
  1.0770e+03   5.56e-03
  1.1212e+03   5.11e-03
  1.1672e+03   4.70e-03
  1.2152e+03   4.31e-03
  1.2650e+03   3.96e-03
  1.3170e+03   3.64e-03
  1.3711e+03   3.34e-03
  1.4273e+03   3.07e-03
  1.4859e+03   2.82e-03
  1.5469e+03   2.58e-03
  1.6104e+03   2.37e-03
  1.6766e+03   2.18e-03
  1.7454e+03   2.00e-03
  1.8170e+03   1.83e-03
  1.8916e+03   1.68e-03
  1.9693e+03   1.54e-03
  2.0501e+03   1.41e-03
  2.1343e+03   1.29e-03
  2.2219e+03   1.18e-03
  2.3131e+03   1.08e-03
  2.4081e+03   9.82e-04
  2.5070e+03   8.96e-04
  2.6099e+03   8.17e-04
  2.7170e+03   7.43e-04
  2.8286e+03   6.77e-04
  2.9447e+03   6.14e-04
  3.0656e+03   5.57e-04
  3.1914e+03   5.05e-04
  3.3225e+03   4.57e-04
  3.4589e+03   4.13e-04
  3.6008e+03   3.73e-04
  3.7487e+03   3.35e-04
  3.9026e+03   3.02e-04
  4.0628e+03   2.71e-04
  4.2296e+03   2.42e-04
  4.4032e+03   2.16e-04
  4.5840e+03   1.93e-04
  4.7722e+03   1.71e-04
  4.9681e+03   1.52e-04
  5.1720e+03   1.34e-04
  5.3844e+03   1.18e-04
  5.6054e+03   1.04e-04
  5.8355e+03   9.11e-05
  6.0751e+03   7.94e-05
  6.3245e+03   6.92e-05
  6.5841e+03   5.99e-05
  6.8544e+03   5.16e-05
  7.1358e+03   4.45e-05
  7.4288e+03   3.80e-05
  7.7338e+03   3.23e-05
  8.0513e+03   2.74e-05
  8.3818e+03   2.30e-05
  8.7259e+03   1.93e-05
  9.0841e+03   1.60e-05
  9.4571e+03   1.32e-05
  9.8453e+03   1.08e-05
  1.0249e+04   8.77e-06
  1.0670e+04   7.02e-06
  1.1108e+04   5.61e-06
  1.1564e+04   4.42e-06
  1.2039e+04   3.41e-06
  1.2533e+04   2.64e-06
  1.3048e+04   1.99e-06
  1.3584e+04   1.48e-06
  1.4141e+04   1.08e-06
  1.4722e+04   7.75e-07
  1.5326e+04   5.40e-07
  1.5955e+04   3.70e-07
  1.6610e+04   2.44e-07
  1.7292e+04   1.56e-07
  1.8002e+04   9.67e-08
  1.8741e+04   5.68e-08
  1.9511e+04   3.19e-08
  2.0312e+04   1.70e-08
  2.1145e+04   8.41e-09
  2.2013e+04   3.88e-09
  2.2917e+04   1.64e-09
  2.3858e+04   6.15e-10
  2.4837e+04   2.07e-10
  2.5857e+04   5.96e-11
  2.6919e+04   1.42e-11
  2.8024e+04   2.79e-12
  2.9174e+04   4.20e-13
  3.0372e+04   4.58e-14
  3.1619e+04   3.47e-15
  3.2917e+04   1.62e-16
  3.4268e+04   4.21e-18
  3.5675e+04   5.36e-20
  3.7140e+04   2.71e-22
  3.8664e+04   4.28e-25
  4.0252e+04   1.55e-28
  4.1904e+04   8.26e-33
  4.3624e+04   3.70e-38
  4.5415e+04   6.42e-45
  4.7280e+04   3.22e-47
  4.9221e+04   2.91e-47
  5.1241e+04   2.65e-47
  5.3345e+04   2.40e-47
  5.5535e+04   2.19e-47
  5.7815e+04   2.00e-47
  6.0188e+04   1.82e-47
  6.2659e+04   1.67e-47
  6.5232e+04   1.53e-47
  6.7910e+04   1.40e-47
  7.0698e+04   1.27e-47
  7.3600e+04   1.15e-47
  7.6621e+04   1.04e-47
  7.9767e+04   9.35e-48
  8.3042e+04   8.33e-48
  8.6451e+04   7.46e-48
  9.0000e+04   6.77e-48
