#  E [GeV]   # per interaction  [GeV^{-1}]
  3.0000e+01   2.61e-02
  3.1123e+01   2.51e-02
  3.2288e+01   2.41e-02
  3.3497e+01   2.32e-02
  3.4751e+01   2.23e-02
  3.6051e+01   2.14e-02
  3.7401e+01   2.06e-02
  3.8801e+01   1.98e-02
  4.0253e+01   1.90e-02
  4.1760e+01   1.82e-02
  4.3324e+01   1.75e-02
  4.4945e+01   1.68e-02
  4.6628e+01   1.61e-02
  4.8373e+01   1.55e-02
  5.0184e+01   1.48e-02
  5.2063e+01   1.42e-02
  5.4011e+01   1.36e-02
  5.6033e+01   1.31e-02
  5.8131e+01   1.25e-02
  6.0307e+01   1.20e-02
  6.2564e+01   1.15e-02
  6.4906e+01   1.10e-02
  6.7336e+01   1.05e-02
  6.9857e+01   1.01e-02
  7.2472e+01   9.65e-03
  7.5184e+01   9.23e-03
  7.7999e+01   8.83e-03
  8.0919e+01   8.44e-03
  8.3948e+01   8.06e-03
  8.7090e+01   7.70e-03
  9.0350e+01   7.35e-03
  9.3732e+01   7.02e-03
  9.7241e+01   6.70e-03
  1.0088e+02   6.40e-03
  1.0466e+02   6.10e-03
  1.0858e+02   5.82e-03
  1.1264e+02   5.55e-03
  1.1686e+02   5.29e-03
  1.2123e+02   5.04e-03
  1.2577e+02   4.80e-03
  1.3048e+02   4.57e-03
  1.3536e+02   4.35e-03
  1.4043e+02   4.14e-03
  1.4568e+02   3.93e-03
  1.5114e+02   3.74e-03
  1.5680e+02   3.55e-03
  1.6266e+02   3.38e-03
  1.6875e+02   3.21e-03
  1.7507e+02   3.04e-03
  1.8162e+02   2.89e-03
  1.8842e+02   2.74e-03
  1.9548e+02   2.60e-03
  2.0279e+02   2.46e-03
  2.1039e+02   2.33e-03
  2.1826e+02   2.20e-03
  2.2643e+02   2.09e-03
  2.3491e+02   1.97e-03
  2.4370e+02   1.86e-03
  2.5282e+02   1.76e-03
  2.6229e+02   1.66e-03
  2.7211e+02   1.57e-03
  2.8229e+02   1.48e-03
  2.9286e+02   1.39e-03
  3.0382e+02   1.31e-03
  3.1519e+02   1.24e-03
  3.2699e+02   1.16e-03
  3.3923e+02   1.09e-03
  3.5193e+02   1.03e-03
  3.6511e+02   9.66e-04
  3.7877e+02   9.06e-04
  3.9295e+02   8.50e-04
  4.0766e+02   7.97e-04
  4.2292e+02   7.47e-04
  4.3875e+02   6.99e-04
  4.5518e+02   6.54e-04
  4.7222e+02   6.12e-04
  4.8989e+02   5.72e-04
  5.0823e+02   5.35e-04
  5.2726e+02   4.99e-04
  5.4699e+02   4.66e-04
  5.6747e+02   4.35e-04
  5.8871e+02   4.05e-04
  6.1075e+02   3.78e-04
  6.3361e+02   3.52e-04
  6.5733e+02   3.28e-04
  6.8194e+02   3.05e-04
  7.0746e+02   2.85e-04
  7.3395e+02   2.65e-04
  7.6142e+02   2.47e-04
  7.8992e+02   2.30e-04
  8.1949e+02   2.14e-04
  8.5017e+02   1.99e-04
  8.8199e+02   1.85e-04
  9.1501e+02   1.73e-04
  9.4926e+02   1.61e-04
  9.8479e+02   1.50e-04
  1.0217e+03   1.39e-04
  1.0599e+03   1.30e-04
  1.0996e+03   1.21e-04
  1.1407e+03   1.13e-04
  1.1834e+03   1.05e-04
  1.2277e+03   9.83e-05
  1.2737e+03   9.18e-05
  1.3214e+03   8.57e-05
  1.3708e+03   8.01e-05
  1.4222e+03   7.49e-05
  1.4754e+03   7.00e-05
  1.5306e+03   6.55e-05
  1.5879e+03   6.13e-05
  1.6474e+03   5.74e-05
  1.7090e+03   5.38e-05
  1.7730e+03   5.04e-05
  1.8394e+03   4.73e-05
  1.9082e+03   4.43e-05
  1.9797e+03   4.16e-05
  2.0538e+03   3.91e-05
  2.1306e+03   3.67e-05
  2.2104e+03   3.45e-05
  2.2931e+03   3.24e-05
  2.3790e+03   3.04e-05
  2.4680e+03   2.86e-05
  2.5604e+03   2.69e-05
  2.6563e+03   2.53e-05
  2.7557e+03   2.38e-05
  2.8589e+03   2.24e-05
  2.9659e+03   2.11e-05
  3.0769e+03   1.99e-05
  3.1921e+03   1.87e-05
  3.3116e+03   1.76e-05
  3.4355e+03   1.66e-05
  3.5641e+03   1.56e-05
  3.6976e+03   1.47e-05
  3.8360e+03   1.38e-05
  3.9796e+03   1.30e-05
  4.1285e+03   1.22e-05
  4.2831e+03   1.14e-05
  4.4434e+03   1.07e-05
  4.6097e+03   1.01e-05
  4.7823e+03   9.42e-06
  4.9613e+03   8.83e-06
  5.1470e+03   8.26e-06
  5.3397e+03   7.72e-06
  5.5396e+03   7.20e-06
  5.7470e+03   6.72e-06
  5.9621e+03   6.25e-06
  6.1853e+03   5.81e-06
  6.4168e+03   5.39e-06
  6.6570e+03   4.99e-06
  6.9062e+03   4.61e-06
  7.1647e+03   4.25e-06
  7.4329e+03   3.91e-06
  7.7112e+03   3.58e-06
  7.9998e+03   3.28e-06
  8.2993e+03   2.98e-06
  8.6100e+03   2.70e-06
  8.9323e+03   2.45e-06
  9.2666e+03   2.20e-06
  9.6135e+03   1.97e-06
  9.9734e+03   1.75e-06
  1.0347e+04   1.55e-06
  1.0734e+04   1.36e-06
  1.1136e+04   1.19e-06
  1.1553e+04   1.03e-06
  1.1985e+04   8.85e-07
  1.2434e+04   7.52e-07
  1.2899e+04   6.33e-07
  1.3382e+04   5.26e-07
  1.3883e+04   4.31e-07
  1.4403e+04   3.48e-07
  1.4942e+04   2.77e-07
  1.5501e+04   2.16e-07
  1.6081e+04   1.65e-07
  1.6683e+04   1.23e-07
  1.7308e+04   8.93e-08
  1.7956e+04   6.29e-08
  1.8628e+04   4.29e-08
  1.9325e+04   2.81e-08
  2.0049e+04   1.76e-08
  2.0799e+04   1.05e-08
  2.1578e+04   5.92e-09
  2.2386e+04   3.11e-09
  2.3224e+04   1.51e-09
  2.4093e+04   6.73e-10
  2.4995e+04   2.69e-10
  2.5930e+04   9.53e-11
  2.6901e+04   2.91e-11
  2.7908e+04   7.49e-12
  2.8953e+04   1.57e-12
  3.0037e+04   2.58e-13
  3.1161e+04   3.16e-14
  3.2327e+04   2.72e-15
  3.3537e+04   1.53e-16
  3.4793e+04   5.08e-18
  3.6095e+04   8.88e-20
  3.7446e+04   7.04e-22
  3.8848e+04   2.08e-24
  4.0302e+04   1.79e-27
  4.1811e+04   3.26e-31
  4.3376e+04   8.27e-36
  4.5000e+04   1.68e-41
