#  E [MeV]   Flux [# cm^{-2} s^{-1}  MeV^{-1}]
  3.0000e+04   1.87e-26
  3.1051e+04   1.80e-26
  3.2139e+04   1.73e-26
  3.3266e+04   1.66e-26
  3.4432e+04   1.60e-26
  3.5638e+04   1.54e-26
  3.6887e+04   1.48e-26
  3.8180e+04   1.42e-26
  3.9518e+04   1.37e-26
  4.0903e+04   1.31e-26
  4.2336e+04   1.26e-26
  4.3820e+04   1.21e-26
  4.5355e+04   1.16e-26
  4.6945e+04   1.11e-26
  4.8590e+04   1.07e-26
  5.0293e+04   1.03e-26
  5.2055e+04   9.84e-27
  5.3879e+04   9.43e-27
  5.5767e+04   9.04e-27
  5.7722e+04   8.67e-27
  5.9745e+04   8.31e-27
  6.1838e+04   7.96e-27
  6.4005e+04   7.62e-27
  6.6248e+04   7.30e-27
  6.8570e+04   6.99e-27
  7.0973e+04   6.68e-27
  7.3460e+04   6.40e-27
  7.6034e+04   6.12e-27
  7.8699e+04   5.85e-27
  8.1457e+04   5.60e-27
  8.4311e+04   5.35e-27
  8.7266e+04   5.11e-27
  9.0324e+04   4.88e-27
  9.3490e+04   4.66e-27
  9.6766e+04   4.45e-27
  1.0016e+05   4.25e-27
  1.0367e+05   4.06e-27
  1.0730e+05   3.87e-27
  1.1106e+05   3.69e-27
  1.1495e+05   3.52e-27
  1.1898e+05   3.35e-27
  1.2315e+05   3.20e-27
  1.2747e+05   3.05e-27
  1.3193e+05   2.90e-27
  1.3656e+05   2.76e-27
  1.4134e+05   2.63e-27
  1.4629e+05   2.50e-27
  1.5142e+05   2.38e-27
  1.5673e+05   2.26e-27
  1.6222e+05   2.15e-27
  1.6790e+05   2.04e-27
  1.7379e+05   1.94e-27
  1.7988e+05   1.84e-27
  1.8618e+05   1.75e-27
  1.9271e+05   1.66e-27
  1.9946e+05   1.57e-27
  2.0645e+05   1.49e-27
  2.1369e+05   1.41e-27
  2.2117e+05   1.34e-27
  2.2892e+05   1.27e-27
  2.3695e+05   1.20e-27
  2.4525e+05   1.14e-27
  2.5385e+05   1.07e-27
  2.6274e+05   1.02e-27
  2.7195e+05   9.59e-28
  2.8148e+05   9.06e-28
  2.9134e+05   8.55e-28
  3.0155e+05   8.07e-28
  3.1212e+05   7.61e-28
  3.2306e+05   7.17e-28
  3.3438e+05   6.76e-28
  3.4610e+05   6.37e-28
  3.5823e+05   5.99e-28
  3.7078e+05   5.64e-28
  3.8377e+05   5.30e-28
  3.9722e+05   4.98e-28
  4.1114e+05   4.68e-28
  4.2555e+05   4.39e-28
  4.4046e+05   4.12e-28
  4.5590e+05   3.87e-28
  4.7188e+05   3.62e-28
  4.8841e+05   3.40e-28
  5.0553e+05   3.18e-28
  5.2324e+05   2.98e-28
  5.4158e+05   2.79e-28
  5.6056e+05   2.61e-28
  5.8020e+05   2.44e-28
  6.0054e+05   2.29e-28
  6.2158e+05   2.14e-28
  6.4337e+05   2.00e-28
  6.6591e+05   1.87e-28
  6.8925e+05   1.75e-28
  7.1340e+05   1.63e-28
  7.3840e+05   1.53e-28
  7.6428e+05   1.43e-28
  7.9106e+05   1.33e-28
  8.1878e+05   1.25e-28
  8.4748e+05   1.17e-28
  8.7718e+05   1.09e-28
  9.0792e+05   1.02e-28
  9.3973e+05   9.55e-29
  9.7267e+05   8.94e-29
  1.0068e+06   8.37e-29
  1.0420e+06   7.84e-29
  1.0785e+06   7.35e-29
  1.1163e+06   6.89e-29
  1.1555e+06   6.46e-29
  1.1960e+06   6.06e-29
  1.2379e+06   5.69e-29
  1.2813e+06   5.35e-29
  1.3262e+06   5.03e-29
  1.3726e+06   4.73e-29
  1.4207e+06   4.45e-29
  1.4705e+06   4.18e-29
  1.5220e+06   3.94e-29
  1.5754e+06   3.71e-29
  1.6306e+06   3.50e-29
  1.6877e+06   3.30e-29
  1.7469e+06   3.11e-29
  1.8081e+06   2.94e-29
  1.8715e+06   2.78e-29
  1.9370e+06   2.62e-29
  2.0049e+06   2.48e-29
  2.0752e+06   2.35e-29
  2.1479e+06   2.22e-29
  2.2232e+06   2.10e-29
  2.3011e+06   1.99e-29
  2.3817e+06   1.89e-29
  2.4652e+06   1.79e-29
  2.5516e+06   1.69e-29
  2.6410e+06   1.60e-29
  2.7336e+06   1.52e-29
  2.8294e+06   1.44e-29
  2.9285e+06   1.36e-29
  3.0311e+06   1.29e-29
  3.1374e+06   1.22e-29
  3.2473e+06   1.16e-29
  3.3611e+06   1.10e-29
  3.4789e+06   1.04e-29
  3.6008e+06   9.85e-30
  3.7270e+06   9.32e-30
  3.8576e+06   8.81e-30
  3.9928e+06   8.34e-30
  4.1327e+06   7.88e-30
  4.2775e+06   7.44e-30
  4.4274e+06   7.02e-30
  4.5826e+06   6.62e-30
  4.7432e+06   6.24e-30
  4.9094e+06   5.87e-30
  5.0815e+06   5.52e-30
  5.2595e+06   5.18e-30
  5.4438e+06   4.85e-30
  5.6346e+06   4.54e-30
  5.8321e+06   4.24e-30
  6.0365e+06   3.95e-30
  6.2480e+06   3.68e-30
  6.4670e+06   3.42e-30
  6.6936e+06   3.17e-30
  6.9282e+06   2.93e-30
  7.1709e+06   2.70e-30
  7.4222e+06   2.49e-30
  7.6823e+06   2.28e-30
  7.9516e+06   2.09e-30
  8.2302e+06   1.90e-30
  8.5186e+06   1.73e-30
  8.8172e+06   1.56e-30
  9.1262e+06   1.41e-30
  9.4460e+06   1.26e-30
  9.7770e+06   1.12e-30
  1.0120e+07   9.96e-31
  1.0474e+07   8.78e-31
  1.0841e+07   7.69e-31
  1.1221e+07   6.67e-31
  1.1614e+07   5.75e-31
  1.2022e+07   4.91e-31
  1.2443e+07   4.15e-31
  1.2879e+07   3.48e-31
  1.3330e+07   2.88e-31
  1.3797e+07   2.35e-31
  1.4281e+07   1.89e-31
  1.4781e+07   1.50e-31
  1.5299e+07   1.17e-31
  1.5835e+07   8.94e-32
  1.6390e+07   6.69e-32
  1.6965e+07   4.89e-32
  1.7559e+07   3.48e-32
  1.8175e+07   2.40e-32
  1.8812e+07   1.60e-32
  1.9471e+07   1.03e-32
  2.0153e+07   6.31e-33
  2.0859e+07   3.68e-33
  2.1590e+07   2.04e-33
  2.2347e+07   1.05e-33
  2.3130e+07   5.07e-34
  2.3941e+07   2.24e-34
  2.4780e+07   8.93e-35
  2.5648e+07   3.18e-35
  2.6547e+07   9.92e-36
  2.7477e+07   2.66e-36
  2.8440e+07   5.97e-37
