#  E [MeV]   Flux [# cm^{-2} s^{-1}  MeV^{-1}]
  3.0000e+04   2.96e-21
  3.0765e+04   2.88e-21
  3.1549e+04   2.81e-21
  3.2354e+04   2.74e-21
  3.3179e+04   2.68e-21
  3.4025e+04   2.61e-21
  3.4892e+04   2.55e-21
  3.5782e+04   2.49e-21
  3.6695e+04   2.43e-21
  3.7630e+04   2.38e-21
  3.8590e+04   2.32e-21
  3.9574e+04   2.27e-21
  4.0583e+04   2.21e-21
  4.1618e+04   2.17e-21
  4.2679e+04   2.12e-21
  4.3767e+04   2.07e-21
  4.4883e+04   2.02e-21
  4.6028e+04   1.98e-21
  4.7201e+04   1.94e-21
  4.8405e+04   1.89e-21
  4.9639e+04   1.85e-21
  5.0905e+04   1.81e-21
  5.2203e+04   1.77e-21
  5.3534e+04   1.74e-21
  5.4899e+04   1.70e-21
  5.6299e+04   1.67e-21
  5.7734e+04   1.63e-21
  5.9207e+04   1.60e-21
  6.0716e+04   1.57e-21
  6.2264e+04   1.54e-21
  6.3852e+04   1.51e-21
  6.5480e+04   1.48e-21
  6.7150e+04   1.45e-21
  6.8862e+04   1.42e-21
  7.0618e+04   1.39e-21
  7.2419e+04   1.37e-21
  7.4265e+04   1.34e-21
  7.6159e+04   1.32e-21
  7.8101e+04   1.29e-21
  8.0092e+04   1.27e-21
  8.2135e+04   1.25e-21
  8.4229e+04   1.22e-21
  8.6377e+04   1.20e-21
  8.8579e+04   1.18e-21
  9.0838e+04   1.16e-21
  9.3154e+04   1.14e-21
  9.5529e+04   1.12e-21
  9.7965e+04   1.10e-21
  1.0046e+05   1.08e-21
  1.0303e+05   1.06e-21
  1.0565e+05   1.04e-21
  1.0835e+05   1.02e-21
  1.1111e+05   1.00e-21
  1.1394e+05   9.85e-22
  1.1685e+05   9.67e-22
  1.1983e+05   9.50e-22
  1.2288e+05   9.33e-22
  1.2602e+05   9.16e-22
  1.2923e+05   9.00e-22
  1.3252e+05   8.84e-22
  1.3590e+05   8.67e-22
  1.3937e+05   8.52e-22
  1.4292e+05   8.36e-22
  1.4657e+05   8.20e-22
  1.5030e+05   8.05e-22
  1.5414e+05   7.90e-22
  1.5807e+05   7.75e-22
  1.6210e+05   7.60e-22
  1.6623e+05   7.46e-22
  1.7047e+05   7.31e-22
  1.7482e+05   7.17e-22
  1.7927e+05   7.03e-22
  1.8384e+05   6.89e-22
  1.8853e+05   6.75e-22
  1.9334e+05   6.61e-22
  1.9827e+05   6.47e-22
  2.0333e+05   6.33e-22
  2.0851e+05   6.20e-22
  2.1383e+05   6.06e-22
  2.1928e+05   5.93e-22
  2.2487e+05   5.79e-22
  2.3060e+05   5.66e-22
  2.3648e+05   5.53e-22
  2.4251e+05   5.40e-22
  2.4870e+05   5.27e-22
  2.5504e+05   5.14e-22
  2.6154e+05   5.02e-22
  2.6821e+05   4.89e-22
  2.7505e+05   4.76e-22
  2.8206e+05   4.64e-22
  2.8926e+05   4.51e-22
  2.9663e+05   4.39e-22
  3.0420e+05   4.27e-22
  3.1195e+05   4.15e-22
  3.1991e+05   4.03e-22
  3.2806e+05   3.91e-22
  3.3643e+05   3.79e-22
  3.4501e+05   3.67e-22
  3.5381e+05   3.56e-22
  3.6283e+05   3.45e-22
  3.7208e+05   3.33e-22
  3.8157e+05   3.22e-22
  3.9130e+05   3.11e-22
  4.0127e+05   3.01e-22
  4.1150e+05   2.90e-22
  4.2200e+05   2.80e-22
  4.3276e+05   2.70e-22
  4.4379e+05   2.60e-22
  4.5511e+05   2.50e-22
  4.6671e+05   2.40e-22
  4.7861e+05   2.31e-22
  4.9082e+05   2.22e-22
  5.0333e+05   2.13e-22
  5.1617e+05   2.04e-22
  5.2933e+05   1.96e-22
  5.4283e+05   1.87e-22
  5.5667e+05   1.79e-22
  5.7086e+05   1.72e-22
  5.8542e+05   1.64e-22
  6.0035e+05   1.57e-22
  6.1565e+05   1.50e-22
  6.3135e+05   1.43e-22
  6.4745e+05   1.36e-22
  6.6396e+05   1.30e-22
  6.8089e+05   1.24e-22
  6.9825e+05   1.18e-22
  7.1606e+05   1.12e-22
  7.3432e+05   1.07e-22
  7.5304e+05   1.01e-22
  7.7224e+05   9.63e-23
  7.9193e+05   9.15e-23
  8.1213e+05   8.69e-23
  8.3283e+05   8.23e-23
  8.5407e+05   7.79e-23
  8.7585e+05   7.38e-23
  8.9818e+05   6.99e-23
  9.2108e+05   6.61e-23
  9.4457e+05   6.25e-23
  9.6866e+05   5.90e-23
  9.9336e+05   5.57e-23
  1.0187e+06   5.27e-23
  1.0447e+06   4.97e-23
  1.0713e+06   4.68e-23
  1.0986e+06   4.42e-23
  1.1266e+06   4.16e-23
  1.1554e+06   3.92e-23
  1.1848e+06   3.69e-23
  1.2150e+06   3.47e-23
  1.2460e+06   3.26e-23
  1.2778e+06   3.07e-23
  1.3104e+06   2.88e-23
  1.3438e+06   2.70e-23
  1.3780e+06   2.54e-23
  1.4132e+06   2.38e-23
  1.4492e+06   2.23e-23
  1.4862e+06   2.09e-23
  1.5241e+06   1.95e-23
  1.5629e+06   1.82e-23
  1.6028e+06   1.70e-23
  1.6436e+06   1.59e-23
  1.6856e+06   1.48e-23
  1.7285e+06   1.37e-23
  1.7726e+06   1.27e-23
  1.8178e+06   1.18e-23
  1.8642e+06   1.09e-23
  1.9117e+06   1.01e-23
  1.9604e+06   9.34e-24
  2.0104e+06   8.61e-24
  2.0617e+06   7.92e-24
  2.1143e+06   7.29e-24
  2.1682e+06   6.69e-24
  2.2235e+06   6.13e-24
  2.2802e+06   5.59e-24
  2.3383e+06   5.11e-24
  2.3979e+06   4.67e-24
  2.4591e+06   4.25e-24
  2.5218e+06   3.85e-24
  2.5861e+06   3.48e-24
  2.6520e+06   3.16e-24
  2.7196e+06   2.85e-24
  2.7890e+06   2.56e-24
  2.8601e+06   2.28e-24
  2.9330e+06   2.04e-24
  3.0078e+06   1.83e-24
  3.0845e+06   1.63e-24
  3.1632e+06   1.45e-24
  3.2438e+06   1.27e-24
  3.3265e+06   1.14e-24
  3.4113e+06   1.01e-24
  3.4983e+06   8.96e-25
  3.5875e+06   7.85e-25
  3.6790e+06   6.92e-25
  3.7728e+06   6.21e-25
  3.8690e+06   5.54e-25
  3.9677e+06   4.91e-25
  4.0689e+06   4.32e-25
  4.1726e+06   3.95e-25
  4.2790e+06   3.64e-25
  4.3881e+06   3.34e-25
  4.5000e+06   3.06e-25
