#  E [MeV]   Flux [# cm^{-2} s^{-1}  MeV^{-1}]
  3.0000e+04   9.78e-20
  3.0675e+04   9.44e-20
  3.1366e+04   9.11e-20
  3.2072e+04   8.80e-20
  3.2794e+04   8.49e-20
  3.3533e+04   8.19e-20
  3.4288e+04   7.90e-20
  3.5060e+04   7.62e-20
  3.5849e+04   7.35e-20
  3.6656e+04   7.08e-20
  3.7482e+04   6.83e-20
  3.8326e+04   6.59e-20
  3.9188e+04   6.35e-20
  4.0071e+04   6.12e-20
  4.0973e+04   5.90e-20
  4.1896e+04   5.69e-20
  4.2839e+04   5.48e-20
  4.3803e+04   5.28e-20
  4.4790e+04   5.09e-20
  4.5798e+04   4.90e-20
  4.6829e+04   4.73e-20
  4.7884e+04   4.55e-20
  4.8962e+04   4.38e-20
  5.0064e+04   4.22e-20
  5.1191e+04   4.06e-20
  5.2344e+04   3.91e-20
  5.3522e+04   3.77e-20
  5.4727e+04   3.62e-20
  5.5960e+04   3.49e-20
  5.7219e+04   3.35e-20
  5.8508e+04   3.22e-20
  5.9825e+04   3.10e-20
  6.1172e+04   2.98e-20
  6.2549e+04   2.86e-20
  6.3958e+04   2.74e-20
  6.5398e+04   2.64e-20
  6.6870e+04   2.53e-20
  6.8376e+04   2.43e-20
  6.9915e+04   2.33e-20
  7.1489e+04   2.23e-20
  7.3099e+04   2.14e-20
  7.4745e+04   2.05e-20
  7.6428e+04   1.97e-20
  7.8148e+04   1.88e-20
  7.9908e+04   1.80e-20
  8.1707e+04   1.73e-20
  8.3547e+04   1.65e-20
  8.5428e+04   1.58e-20
  8.7351e+04   1.51e-20
  8.9318e+04   1.45e-20
  9.1329e+04   1.38e-20
  9.3385e+04   1.32e-20
  9.5488e+04   1.26e-20
  9.7638e+04   1.20e-20
  9.9836e+04   1.15e-20
  1.0208e+05   1.10e-20
  1.0438e+05   1.05e-20
  1.0673e+05   9.98e-21
  1.0914e+05   9.51e-21
  1.1159e+05   9.06e-21
  1.1411e+05   8.62e-21
  1.1667e+05   8.21e-21
  1.1930e+05   7.81e-21
  1.2199e+05   7.43e-21
  1.2473e+05   7.06e-21
  1.2754e+05   6.70e-21
  1.3041e+05   6.36e-21
  1.3335e+05   6.04e-21
  1.3635e+05   5.73e-21
  1.3942e+05   5.44e-21
  1.4256e+05   5.15e-21
  1.4577e+05   4.88e-21
  1.4905e+05   4.62e-21
  1.5241e+05   4.37e-21
  1.5584e+05   4.14e-21
  1.5935e+05   3.91e-21
  1.6294e+05   3.69e-21
  1.6661e+05   3.48e-21
  1.7036e+05   3.29e-21
  1.7419e+05   3.10e-21
  1.7812e+05   2.92e-21
  1.8213e+05   2.75e-21
  1.8623e+05   2.59e-21
  1.9042e+05   2.44e-21
  1.9471e+05   2.29e-21
  1.9909e+05   2.15e-21
  2.0357e+05   2.02e-21
  2.0816e+05   1.89e-21
  2.1284e+05   1.78e-21
  2.1763e+05   1.66e-21
  2.2253e+05   1.56e-21
  2.2755e+05   1.45e-21
  2.3267e+05   1.36e-21
  2.3791e+05   1.27e-21
  2.4326e+05   1.19e-21
  2.4874e+05   1.10e-21
  2.5434e+05   1.03e-21
  2.6007e+05   9.54e-22
  2.6592e+05   8.88e-22
  2.7191e+05   8.26e-22
  2.7803e+05   7.66e-22
  2.8429e+05   7.09e-22
  2.9069e+05   6.56e-22
  2.9724e+05   6.08e-22
  3.0393e+05   5.63e-22
  3.1077e+05   5.20e-22
  3.1777e+05   4.79e-22
  3.2493e+05   4.41e-22
  3.3224e+05   4.07e-22
  3.3972e+05   3.76e-22
  3.4737e+05   3.46e-22
  3.5519e+05   3.17e-22
  3.6319e+05   2.89e-22
  3.7137e+05   2.66e-22
  3.7973e+05   2.45e-22
  3.8828e+05   2.24e-22
  3.9702e+05   2.04e-22
  4.0596e+05   1.86e-22
  4.1510e+05   1.70e-22
  4.2444e+05   1.56e-22
  4.3400e+05   1.42e-22
  4.4377e+05   1.29e-22
  4.5376e+05   1.17e-22
  4.6398e+05   1.06e-22
  4.7443e+05   9.65e-23
  4.8511e+05   8.76e-23
  4.9603e+05   7.91e-23
  5.0720e+05   7.12e-23
  5.1862e+05   6.42e-23
  5.3030e+05   5.83e-23
  5.4224e+05   5.27e-23
  5.5444e+05   4.74e-23
  5.6693e+05   4.24e-23
  5.7969e+05   3.80e-23
  5.9274e+05   3.44e-23
  6.0609e+05   3.10e-23
  6.1974e+05   2.78e-23
  6.3369e+05   2.47e-23
  6.4796e+05   2.20e-23
  6.6255e+05   1.98e-23
  6.7746e+05   1.78e-23
  6.9272e+05   1.59e-23
  7.0831e+05   1.42e-23
  7.2426e+05   1.25e-23
  7.4057e+05   1.12e-23
  7.5724e+05   1.01e-23
  7.7429e+05   8.98e-24
  7.9172e+05   7.96e-24
  8.0955e+05   7.00e-24
  8.2778e+05   6.26e-24
  8.4641e+05   5.60e-24
  8.6547e+05   4.99e-24
  8.8496e+05   4.41e-24
  9.0488e+05   3.88e-24
  9.2526e+05   3.44e-24
  9.4609e+05   3.08e-24
  9.6739e+05   2.74e-24
  9.8917e+05   2.42e-24
  1.0114e+06   2.12e-24
  1.0342e+06   1.87e-24
  1.0575e+06   1.67e-24
  1.0813e+06   1.49e-24
  1.1057e+06   1.32e-24
  1.1305e+06   1.16e-24
  1.1560e+06   1.02e-24
  1.1820e+06   9.15e-25
  1.2086e+06   8.18e-25
  1.2359e+06   7.27e-25
  1.2637e+06   6.42e-25
  1.2921e+06   5.64e-25
  1.3212e+06   5.10e-25
  1.3510e+06   4.59e-25
  1.3814e+06   4.11e-25
  1.4125e+06   3.66e-25
  1.4443e+06   3.24e-25
  1.4768e+06   2.95e-25
  1.5101e+06   2.69e-25
  1.5441e+06   2.44e-25
  1.5788e+06   2.21e-25
  1.6144e+06   1.98e-25
  1.6507e+06   1.82e-25
  1.6879e+06   1.67e-25
  1.7259e+06   1.54e-25
  1.7648e+06   1.41e-25
  1.8045e+06   1.28e-25
  1.8451e+06   1.18e-25
  1.8867e+06   1.10e-25
  1.9291e+06   1.01e-25
  1.9726e+06   9.35e-26
  2.0170e+06   8.60e-26
  2.0624e+06   7.92e-26
  2.1088e+06   7.32e-26
  2.1563e+06   6.74e-26
  2.2049e+06   6.20e-26
  2.2545e+06   5.68e-26
  2.3053e+06   5.22e-26
  2.3572e+06   4.89e-26
  2.4102e+06   4.58e-26
  2.4645e+06   4.29e-26
  2.5200e+06   4.00e-26
