#  E [MeV]   Flux [# cm^{-2} s^{-1}  MeV^{-1}]
  3.0000e+04   1.23e-20
  3.1123e+04   1.18e-20
  3.2288e+04   1.13e-20
  3.3497e+04   1.09e-20
  3.4751e+04   1.04e-20
  3.6051e+04   1.00e-20
  3.7401e+04   9.59e-21
  3.8801e+04   9.20e-21
  4.0253e+04   8.83e-21
  4.1760e+04   8.47e-21
  4.3324e+04   8.12e-21
  4.4945e+04   7.79e-21
  4.6628e+04   7.46e-21
  4.8373e+04   7.15e-21
  5.0184e+04   6.86e-21
  5.2063e+04   6.57e-21
  5.4011e+04   6.30e-21
  5.6033e+04   6.03e-21
  5.8131e+04   5.78e-21
  6.0307e+04   5.54e-21
  6.2564e+04   5.30e-21
  6.4906e+04   5.08e-21
  6.7336e+04   4.86e-21
  6.9857e+04   4.65e-21
  7.2472e+04   4.45e-21
  7.5184e+04   4.26e-21
  7.7999e+04   4.07e-21
  8.0919e+04   3.89e-21
  8.3948e+04   3.72e-21
  8.7090e+04   3.56e-21
  9.0350e+04   3.40e-21
  9.3732e+04   3.25e-21
  9.7241e+04   3.10e-21
  1.0088e+05   2.96e-21
  1.0466e+05   2.83e-21
  1.0858e+05   2.70e-21
  1.1264e+05   2.57e-21
  1.1686e+05   2.45e-21
  1.2123e+05   2.34e-21
  1.2577e+05   2.23e-21
  1.3048e+05   2.12e-21
  1.3536e+05   2.02e-21
  1.4043e+05   1.92e-21
  1.4568e+05   1.83e-21
  1.5114e+05   1.74e-21
  1.5680e+05   1.65e-21
  1.6266e+05   1.57e-21
  1.6875e+05   1.49e-21
  1.7507e+05   1.41e-21
  1.8162e+05   1.34e-21
  1.8842e+05   1.26e-21
  1.9548e+05   1.20e-21
  2.0279e+05   1.13e-21
  2.1039e+05   1.07e-21
  2.1826e+05   1.01e-21
  2.2643e+05   9.53e-22
  2.3491e+05   8.99e-22
  2.4370e+05   8.47e-22
  2.5282e+05   7.97e-22
  2.6229e+05   7.50e-22
  2.7211e+05   7.04e-22
  2.8229e+05   6.60e-22
  2.9286e+05   6.18e-22
  3.0382e+05   5.78e-22
  3.1519e+05   5.41e-22
  3.2699e+05   5.05e-22
  3.3923e+05   4.71e-22
  3.5193e+05   4.39e-22
  3.6511e+05   4.08e-22
  3.7877e+05   3.79e-22
  3.9295e+05   3.52e-22
  4.0766e+05   3.27e-22
  4.2292e+05   3.02e-22
  4.3875e+05   2.80e-22
  4.5518e+05   2.59e-22
  4.7222e+05   2.39e-22
  4.8989e+05   2.20e-22
  5.0823e+05   2.03e-22
  5.2726e+05   1.86e-22
  5.4699e+05   1.71e-22
  5.6747e+05   1.57e-22
  5.8871e+05   1.44e-22
  6.1075e+05   1.32e-22
  6.3361e+05   1.21e-22
  6.5733e+05   1.10e-22
  6.8194e+05   1.01e-22
  7.0746e+05   9.23e-23
  7.3395e+05   8.43e-23
  7.6142e+05   7.69e-23
  7.8992e+05   7.02e-23
  8.1949e+05   6.40e-23
  8.5017e+05   5.84e-23
  8.8199e+05   5.32e-23
  9.1501e+05   4.85e-23
  9.4926e+05   4.42e-23
  9.8479e+05   4.03e-23
  1.0217e+06   3.67e-23
  1.0599e+06   3.35e-23
  1.0996e+06   3.05e-23
  1.1407e+06   2.78e-23
  1.1834e+06   2.54e-23
  1.2277e+06   2.31e-23
  1.2737e+06   2.11e-23
  1.3214e+06   1.92e-23
  1.3708e+06   1.76e-23
  1.4222e+06   1.60e-23
  1.4754e+06   1.46e-23
  1.5306e+06   1.34e-23
  1.5879e+06   1.22e-23
  1.6474e+06   1.11e-23
  1.7090e+06   1.02e-23
  1.7730e+06   9.28e-24
  1.8394e+06   8.47e-24
  1.9082e+06   7.74e-24
  1.9797e+06   7.07e-24
  2.0538e+06   6.44e-24
  2.1306e+06   5.88e-24
  2.2104e+06   5.36e-24
  2.2931e+06   4.88e-24
  2.3790e+06   4.45e-24
  2.4680e+06   4.05e-24
  2.5604e+06   3.68e-24
  2.6563e+06   3.34e-24
  2.7557e+06   3.04e-24
  2.8589e+06   2.75e-24
  2.9659e+06   2.49e-24
  3.0769e+06   2.25e-24
  3.1921e+06   2.03e-24
  3.3116e+06   1.83e-24
  3.4355e+06   1.65e-24
  3.5641e+06   1.48e-24
  3.6976e+06   1.33e-24
  3.8360e+06   1.19e-24
  3.9796e+06   1.06e-24
  4.1285e+06   9.46e-25
  4.2831e+06   8.42e-25
  4.4434e+06   7.46e-25
  4.6097e+06   6.58e-25
  4.7823e+06   5.80e-25
  4.9613e+06   5.09e-25
  5.1470e+06   4.44e-25
  5.3397e+06   3.88e-25
  5.5396e+06   3.37e-25
  5.7470e+06   2.91e-25
  5.9621e+06   2.51e-25
  6.1853e+06   2.15e-25
  6.4168e+06   1.83e-25
  6.6570e+06   1.55e-25
  6.9062e+06   1.31e-25
  7.1647e+06   1.09e-25
  7.4329e+06   9.09e-26
  7.7112e+06   7.51e-26
  7.9998e+06   6.14e-26
  8.2993e+06   4.99e-26
  8.6100e+06   4.02e-26
  8.9323e+06   3.20e-26
  9.2666e+06   2.52e-26
  9.6135e+06   1.97e-26
  9.9734e+06   1.51e-26
  1.0347e+07   1.15e-26
  1.0734e+07   8.61e-27
  1.1136e+07   6.33e-27
  1.1553e+07   4.56e-27
  1.1985e+07   3.25e-27
  1.2434e+07   2.25e-27
  1.2899e+07   1.52e-27
  1.3382e+07   1.01e-27
  1.3883e+07   6.46e-28
  1.4403e+07   3.99e-28
  1.4942e+07   2.40e-28
  1.5501e+07   1.38e-28
  1.6081e+07   7.54e-29
  1.6683e+07   3.95e-29
  1.7308e+07   1.95e-29
  1.7956e+07   9.00e-30
  1.8628e+07   3.87e-30
  1.9325e+07   1.53e-30
  2.0049e+07   5.50e-31
  2.0799e+07   1.77e-31
  2.1578e+07   5.05e-32
  2.2386e+07   1.24e-32
  2.3224e+07   2.57e-33
  2.4093e+07   4.42e-34
  2.4995e+07   6.04e-35
  2.5930e+07   6.33e-36
  2.6901e+07   4.98e-37
  2.7908e+07   2.70e-38
  2.8953e+07   9.53e-40
  3.0037e+07   2.09e-41
  3.1161e+07   2.50e-43
  3.2327e+07   1.44e-45
  3.3537e+07   3.80e-48
  3.4793e+07   3.50e-51
  3.6095e+07   9.06e-55
  3.7446e+07   6.07e-59
  3.8848e+07   6.14e-64
  4.0302e+07   1.77e-65
  4.1811e+07   2.19e-65
  4.3376e+07   2.67e-65
  4.5000e+07   3.12e-65
