#  E [MeV]   Flux [# cm^{-2} s^{-1}  MeV^{-1}]
  3.0000e+04   4.63e-18
  3.0943e+04   4.45e-18
  3.1916e+04   4.27e-18
  3.2920e+04   4.10e-18
  3.3955e+04   3.94e-18
  3.5023e+04   3.78e-18
  3.6124e+04   3.63e-18
  3.7260e+04   3.49e-18
  3.8432e+04   3.35e-18
  3.9640e+04   3.21e-18
  4.0887e+04   3.08e-18
  4.2172e+04   2.96e-18
  4.3499e+04   2.84e-18
  4.4866e+04   2.72e-18
  4.6277e+04   2.61e-18
  4.7732e+04   2.50e-18
  4.9233e+04   2.40e-18
  5.0781e+04   2.30e-18
  5.2378e+04   2.20e-18
  5.4025e+04   2.11e-18
  5.5724e+04   2.02e-18
  5.7476e+04   1.93e-18
  5.9284e+04   1.85e-18
  6.1148e+04   1.77e-18
  6.3071e+04   1.70e-18
  6.5054e+04   1.62e-18
  6.7100e+04   1.55e-18
  6.9210e+04   1.49e-18
  7.1386e+04   1.42e-18
  7.3631e+04   1.36e-18
  7.5946e+04   1.30e-18
  7.8334e+04   1.24e-18
  8.0797e+04   1.19e-18
  8.3338e+04   1.13e-18
  8.5959e+04   1.08e-18
  8.8662e+04   1.03e-18
  9.1450e+04   9.88e-19
  9.4325e+04   9.42e-19
  9.7291e+04   8.99e-19
  1.0035e+05   8.57e-19
  1.0351e+05   8.17e-19
  1.0676e+05   7.79e-19
  1.1012e+05   7.42e-19
  1.1358e+05   7.07e-19
  1.1715e+05   6.73e-19
  1.2084e+05   6.41e-19
  1.2464e+05   6.10e-19
  1.2856e+05   5.81e-19
  1.3260e+05   5.52e-19
  1.3677e+05   5.25e-19
  1.4107e+05   4.99e-19
  1.4550e+05   4.74e-19
  1.5008e+05   4.51e-19
  1.5480e+05   4.28e-19
  1.5967e+05   4.06e-19
  1.6469e+05   3.86e-19
  1.6987e+05   3.66e-19
  1.7521e+05   3.47e-19
  1.8072e+05   3.29e-19
  1.8640e+05   3.12e-19
  1.9226e+05   2.96e-19
  1.9831e+05   2.80e-19
  2.0454e+05   2.66e-19
  2.1097e+05   2.51e-19
  2.1761e+05   2.38e-19
  2.2445e+05   2.25e-19
  2.3151e+05   2.13e-19
  2.3879e+05   2.01e-19
  2.4630e+05   1.90e-19
  2.5404e+05   1.80e-19
  2.6203e+05   1.70e-19
  2.7027e+05   1.60e-19
  2.7877e+05   1.51e-19
  2.8753e+05   1.43e-19
  2.9657e+05   1.35e-19
  3.0590e+05   1.27e-19
  3.1552e+05   1.20e-19
  3.2544e+05   1.13e-19
  3.3567e+05   1.06e-19
  3.4623e+05   9.97e-20
  3.5712e+05   9.37e-20
  3.6835e+05   8.81e-20
  3.7993e+05   8.27e-20
  3.9188e+05   7.76e-20
  4.0420e+05   7.28e-20
  4.1691e+05   6.83e-20
  4.3002e+05   6.39e-20
  4.4354e+05   5.98e-20
  4.5749e+05   5.60e-20
  4.7187e+05   5.24e-20
  4.8671e+05   4.90e-20
  5.0202e+05   4.58e-20
  5.1780e+05   4.28e-20
  5.3409e+05   3.99e-20
  5.5088e+05   3.72e-20
  5.6820e+05   3.47e-20
  5.8607e+05   3.23e-20
  6.0450e+05   3.01e-20
  6.2351e+05   2.80e-20
  6.4311e+05   2.60e-20
  6.6334e+05   2.42e-20
  6.8419e+05   2.25e-20
  7.0571e+05   2.08e-20
  7.2790e+05   1.93e-20
  7.5079e+05   1.79e-20
  7.7440e+05   1.66e-20
  7.9875e+05   1.53e-20
  8.2387e+05   1.42e-20
  8.4977e+05   1.31e-20
  8.7649e+05   1.21e-20
  9.0405e+05   1.11e-20
  9.3248e+05   1.03e-20
  9.6180e+05   9.45e-21
  9.9205e+05   8.67e-21
  1.0232e+06   7.99e-21
  1.0554e+06   7.35e-21
  1.0886e+06   6.74e-21
  1.1228e+06   6.17e-21
  1.1581e+06   5.67e-21
  1.1946e+06   5.19e-21
  1.2321e+06   4.74e-21
  1.2709e+06   4.34e-21
  1.3108e+06   3.97e-21
  1.3521e+06   3.63e-21
  1.3946e+06   3.30e-21
  1.4384e+06   3.01e-21
  1.4837e+06   2.75e-21
  1.5303e+06   2.49e-21
  1.5784e+06   2.26e-21
  1.6281e+06   2.06e-21
  1.6793e+06   1.87e-21
  1.7321e+06   1.69e-21
  1.7865e+06   1.53e-21
  1.8427e+06   1.39e-21
  1.9006e+06   1.26e-21
  1.9604e+06   1.13e-21
  2.0221e+06   1.02e-21
  2.0856e+06   9.25e-22
  2.1512e+06   8.33e-22
  2.2189e+06   7.45e-22
  2.2886e+06   6.74e-22
  2.3606e+06   6.07e-22
  2.4348e+06   5.44e-22
  2.5114e+06   4.86e-22
  2.5904e+06   4.39e-22
  2.6718e+06   3.94e-22
  2.7558e+06   3.51e-22
  2.8425e+06   3.14e-22
  2.9319e+06   2.82e-22
  3.0241e+06   2.52e-22
  3.1192e+06   2.23e-22
  3.2173e+06   2.00e-22
  3.3184e+06   1.79e-22
  3.4228e+06   1.59e-22
  3.5304e+06   1.41e-22
  3.6414e+06   1.26e-22
  3.7559e+06   1.13e-22
  3.8740e+06   9.98e-23
  3.9958e+06   8.85e-23
  4.1215e+06   7.93e-23
  4.2511e+06   7.06e-23
  4.3848e+06   6.24e-23
  4.5227e+06   5.57e-23
  4.6649e+06   4.99e-23
  4.8116e+06   4.44e-23
  4.9629e+06   3.92e-23
  5.1189e+06   3.52e-23
  5.2799e+06   3.16e-23
  5.4459e+06   2.81e-23
  5.6171e+06   2.50e-23
  5.7938e+06   2.26e-23
  5.9760e+06   2.03e-23
  6.1639e+06   1.82e-23
  6.3577e+06   1.64e-23
  6.5576e+06   1.49e-23
  6.7638e+06   1.35e-23
  6.9765e+06   1.22e-23
  7.1959e+06   1.11e-23
  7.4222e+06   1.02e-23
  7.6556e+06   9.25e-24
  7.8963e+06   8.39e-24
  8.1446e+06   7.72e-24
  8.4007e+06   7.08e-24
  8.6649e+06   6.47e-24
  8.9373e+06   5.93e-24
  9.2184e+06   5.48e-24
  9.5082e+06   5.05e-24
  9.8072e+06   4.64e-24
  1.0116e+07   4.28e-24
  1.0434e+07   3.95e-24
  1.0762e+07   3.65e-24
  1.1100e+07   3.35e-24
  1.1449e+07   3.09e-24
  1.1809e+07   2.84e-24
  1.2181e+07   2.60e-24
  1.2564e+07   2.38e-24
  1.2959e+07   2.16e-24
  1.3366e+07   1.95e-24
  1.3786e+07   1.76e-24
  1.4220e+07   1.60e-24
