#  E [GeV]   # per interaction  [GeV^{-1}]
  3.0000e+01   2.66e-02
  3.1123e+01   2.56e-02
  3.2288e+01   2.46e-02
  3.3497e+01   2.37e-02
  3.4751e+01   2.28e-02
  3.6051e+01   2.19e-02
  3.7401e+01   2.11e-02
  3.8801e+01   2.03e-02
  4.0253e+01   1.95e-02
  4.1760e+01   1.87e-02
  4.3324e+01   1.80e-02
  4.4945e+01   1.73e-02
  4.6628e+01   1.66e-02
  4.8373e+01   1.59e-02
  5.0184e+01   1.53e-02
  5.2063e+01   1.47e-02
  5.4011e+01   1.41e-02
  5.6033e+01   1.35e-02
  5.8131e+01   1.30e-02
  6.0307e+01   1.24e-02
  6.2564e+01   1.19e-02
  6.4906e+01   1.14e-02
  6.7336e+01   1.10e-02
  6.9857e+01   1.05e-02
  7.2472e+01   1.01e-02
  7.5184e+01   9.65e-03
  7.7999e+01   9.24e-03
  8.0919e+01   8.85e-03
  8.3948e+01   8.47e-03
  8.7090e+01   8.11e-03
  9.0350e+01   7.76e-03
  9.3732e+01   7.43e-03
  9.7241e+01   7.11e-03
  1.0088e+02   6.80e-03
  1.0466e+02   6.50e-03
  1.0858e+02   6.22e-03
  1.1264e+02   5.94e-03
  1.1686e+02   5.68e-03
  1.2123e+02   5.43e-03
  1.2577e+02   5.19e-03
  1.3048e+02   4.95e-03
  1.3536e+02   4.73e-03
  1.4043e+02   4.52e-03
  1.4568e+02   4.32e-03
  1.5114e+02   4.12e-03
  1.5680e+02   3.93e-03
  1.6266e+02   3.75e-03
  1.6875e+02   3.58e-03
  1.7507e+02   3.42e-03
  1.8162e+02   3.26e-03
  1.8842e+02   3.11e-03
  1.9548e+02   2.96e-03
  2.0279e+02   2.83e-03
  2.1039e+02   2.69e-03
  2.1826e+02   2.57e-03
  2.2643e+02   2.45e-03
  2.3491e+02   2.33e-03
  2.4370e+02   2.22e-03
  2.5282e+02   2.12e-03
  2.6229e+02   2.02e-03
  2.7211e+02   1.92e-03
  2.8229e+02   1.83e-03
  2.9286e+02   1.74e-03
  3.0382e+02   1.66e-03
  3.1519e+02   1.58e-03
  3.2699e+02   1.50e-03
  3.3923e+02   1.43e-03
  3.5193e+02   1.36e-03
  3.6511e+02   1.30e-03
  3.7877e+02   1.24e-03
  3.9295e+02   1.18e-03
  4.0766e+02   1.12e-03
  4.2292e+02   1.07e-03
  4.3875e+02   1.01e-03
  4.5518e+02   9.66e-04
  4.7222e+02   9.19e-04
  4.8989e+02   8.75e-04
  5.0823e+02   8.33e-04
  5.2726e+02   7.93e-04
  5.4699e+02   7.55e-04
  5.6747e+02   7.20e-04
  5.8871e+02   6.86e-04
  6.1075e+02   6.54e-04
  6.3361e+02   6.23e-04
  6.5733e+02   5.94e-04
  6.8194e+02   5.67e-04
  7.0746e+02   5.41e-04
  7.3395e+02   5.16e-04
  7.6142e+02   4.93e-04
  7.8992e+02   4.71e-04
  8.1949e+02   4.50e-04
  8.5017e+02   4.30e-04
  8.8199e+02   4.12e-04
  9.1501e+02   3.94e-04
  9.4926e+02   3.77e-04
  9.8479e+02   3.62e-04
  1.0217e+03   3.47e-04
  1.0599e+03   3.32e-04
  1.0996e+03   3.19e-04
  1.1407e+03   3.06e-04
  1.1834e+03   2.94e-04
  1.2277e+03   2.83e-04
  1.2737e+03   2.72e-04
  1.3214e+03   2.62e-04
  1.3708e+03   2.52e-04
  1.4222e+03   2.43e-04
  1.4754e+03   2.34e-04
  1.5306e+03   2.25e-04
  1.5879e+03   2.17e-04
  1.6474e+03   2.10e-04
  1.7090e+03   2.02e-04
  1.7730e+03   1.95e-04
  1.8394e+03   1.89e-04
  1.9082e+03   1.82e-04
  1.9797e+03   1.76e-04
  2.0538e+03   1.70e-04
  2.1306e+03   1.65e-04
  2.2104e+03   1.59e-04
  2.2931e+03   1.54e-04
  2.3790e+03   1.49e-04
  2.4680e+03   1.44e-04
  2.5604e+03   1.39e-04
  2.6563e+03   1.34e-04
  2.7557e+03   1.30e-04
  2.8589e+03   1.25e-04
  2.9659e+03   1.21e-04
  3.0769e+03   1.16e-04
  3.1921e+03   1.12e-04
  3.3116e+03   1.08e-04
  3.4355e+03   1.04e-04
  3.5641e+03   9.99e-05
  3.6976e+03   9.60e-05
  3.8360e+03   9.22e-05
  3.9796e+03   8.84e-05
  4.1285e+03   8.47e-05
  4.2831e+03   8.10e-05
  4.4434e+03   7.74e-05
  4.6097e+03   7.38e-05
  4.7823e+03   7.04e-05
  4.9613e+03   6.69e-05
  5.1470e+03   6.35e-05
  5.3397e+03   6.02e-05
  5.5396e+03   5.70e-05
  5.7470e+03   5.38e-05
  5.9621e+03   5.07e-05
  6.1853e+03   4.76e-05
  6.4168e+03   4.46e-05
  6.6570e+03   4.17e-05
  6.9062e+03   3.88e-05
  7.1647e+03   3.61e-05
  7.4329e+03   3.34e-05
  7.7112e+03   3.08e-05
  7.9998e+03   2.83e-05
  8.2993e+03   2.59e-05
  8.6100e+03   2.37e-05
  8.9323e+03   2.14e-05
  9.2666e+03   1.93e-05
  9.6135e+03   1.73e-05
  9.9734e+03   1.54e-05
  1.0347e+04   1.37e-05
  1.0734e+04   1.20e-05
  1.1136e+04   1.05e-05
  1.1553e+04   9.08e-06
  1.1985e+04   7.79e-06
  1.2434e+04   6.61e-06
  1.2899e+04   5.55e-06
  1.3382e+04   4.60e-06
  1.3883e+04   3.77e-06
  1.4403e+04   3.04e-06
  1.4942e+04   2.41e-06
  1.5501e+04   1.88e-06
  1.6081e+04   1.43e-06
  1.6683e+04   1.07e-06
  1.7308e+04   7.80e-07
  1.7956e+04   5.51e-07
  1.8628e+04   3.77e-07
  1.9325e+04   2.48e-07
  2.0049e+04   1.57e-07
  2.0799e+04   9.49e-08
  2.1578e+04   5.42e-08
  2.2386e+04   2.92e-08
  2.3224e+04   1.46e-08
  2.4093e+04   6.73e-09
  2.4995e+04   2.83e-09
  2.5930e+04   1.06e-09
  2.6901e+04   3.50e-10
  2.7908e+04   9.89e-11
  2.8953e+04   2.33e-11
  3.0037e+04   4.37e-12
  3.1161e+04   6.38e-13
  3.2327e+04   6.81e-14
  3.3537e+04   4.92e-15
  3.4793e+04   2.26e-16
  3.6095e+04   5.94e-18
  3.7446e+04   7.64e-20
  3.8848e+04   4.15e-22
  4.0302e+04   7.67e-25
  4.1811e+04   3.54e-28
  4.3376e+04   2.85e-32
  4.5000e+04   2.51e-37
