#  E [MeV]   Flux [# cm^{-2} s^{-1}  MeV^{-1}]
  3.0000e+04   2.32e-19
  3.0501e+04   2.24e-19
  3.1010e+04   2.18e-19
  3.1528e+04   2.11e-19
  3.2055e+04   2.04e-19
  3.2590e+04   1.98e-19
  3.3134e+04   1.92e-19
  3.3688e+04   1.85e-19
  3.4250e+04   1.79e-19
  3.4822e+04   1.74e-19
  3.5404e+04   1.68e-19
  3.5995e+04   1.63e-19
  3.6596e+04   1.58e-19
  3.7207e+04   1.52e-19
  3.7829e+04   1.47e-19
  3.8460e+04   1.43e-19
  3.9103e+04   1.38e-19
  3.9756e+04   1.33e-19
  4.0420e+04   1.29e-19
  4.1095e+04   1.25e-19
  4.1781e+04   1.20e-19
  4.2479e+04   1.16e-19
  4.3188e+04   1.12e-19
  4.3909e+04   1.09e-19
  4.4642e+04   1.05e-19
  4.5388e+04   1.01e-19
  4.6146e+04   9.79e-20
  4.6917e+04   9.45e-20
  4.7700e+04   9.11e-20
  4.8497e+04   8.79e-20
  4.9307e+04   8.49e-20
  5.0130e+04   8.19e-20
  5.0967e+04   7.90e-20
  5.1818e+04   7.62e-20
  5.2684e+04   7.35e-20
  5.3563e+04   7.08e-20
  5.4458e+04   6.82e-20
  5.5367e+04   6.58e-20
  5.6292e+04   6.34e-20
  5.7232e+04   6.11e-20
  5.8188e+04   5.89e-20
  5.9160e+04   5.67e-20
  6.0148e+04   5.46e-20
  6.1152e+04   5.25e-20
  6.2173e+04   5.06e-20
  6.3212e+04   4.87e-20
  6.4267e+04   4.69e-20
  6.5340e+04   4.51e-20
  6.6432e+04   4.34e-20
  6.7541e+04   4.17e-20
  6.8669e+04   4.01e-20
  6.9816e+04   3.86e-20
  7.0982e+04   3.71e-20
  7.2167e+04   3.57e-20
  7.3372e+04   3.43e-20
  7.4598e+04   3.29e-20
  7.5843e+04   3.16e-20
  7.7110e+04   3.03e-20
  7.8398e+04   2.91e-20
  7.9707e+04   2.80e-20
  8.1038e+04   2.68e-20
  8.2391e+04   2.58e-20
  8.3767e+04   2.47e-20
  8.5166e+04   2.36e-20
  8.6588e+04   2.27e-20
  8.8034e+04   2.17e-20
  8.9505e+04   2.08e-20
  9.0999e+04   2.00e-20
  9.2519e+04   1.91e-20
  9.4064e+04   1.83e-20
  9.5635e+04   1.75e-20
  9.7232e+04   1.68e-20
  9.8856e+04   1.61e-20
  1.0051e+05   1.54e-20
  1.0219e+05   1.47e-20
  1.0389e+05   1.41e-20
  1.0563e+05   1.34e-20
  1.0739e+05   1.28e-20
  1.0918e+05   1.23e-20
  1.1101e+05   1.17e-20
  1.1286e+05   1.12e-20
  1.1475e+05   1.07e-20
  1.1666e+05   1.02e-20
  1.1861e+05   9.74e-21
  1.2059e+05   9.28e-21
  1.2260e+05   8.85e-21
  1.2465e+05   8.45e-21
  1.2673e+05   8.07e-21
  1.2885e+05   7.69e-21
  1.3100e+05   7.33e-21
  1.3319e+05   6.97e-21
  1.3541e+05   6.63e-21
  1.3768e+05   6.31e-21
  1.3997e+05   6.01e-21
  1.4231e+05   5.73e-21
  1.4469e+05   5.45e-21
  1.4711e+05   5.18e-21
  1.4956e+05   4.92e-21
  1.5206e+05   4.66e-21
  1.5460e+05   4.43e-21
  1.5718e+05   4.21e-21
  1.5981e+05   4.00e-21
  1.6247e+05   3.80e-21
  1.6519e+05   3.60e-21
  1.6795e+05   3.40e-21
  1.7075e+05   3.22e-21
  1.7360e+05   3.05e-21
  1.7650e+05   2.89e-21
  1.7945e+05   2.74e-21
  1.8245e+05   2.59e-21
  1.8549e+05   2.45e-21
  1.8859e+05   2.31e-21
  1.9174e+05   2.18e-21
  1.9494e+05   2.06e-21
  1.9820e+05   1.95e-21
  2.0151e+05   1.84e-21
  2.0487e+05   1.74e-21
  2.0829e+05   1.64e-21
  2.1177e+05   1.54e-21
  2.1531e+05   1.44e-21
  2.1890e+05   1.36e-21
  2.2256e+05   1.29e-21
  2.2628e+05   1.21e-21
  2.3006e+05   1.14e-21
  2.3390e+05   1.07e-21
  2.3780e+05   1.00e-21
  2.4178e+05   9.38e-22
  2.4581e+05   8.82e-22
  2.4992e+05   8.30e-22
  2.5409e+05   7.80e-22
  2.5833e+05   7.32e-22
  2.6265e+05   6.85e-22
  2.6704e+05   6.39e-22
  2.7149e+05   5.95e-22
  2.7603e+05   5.58e-22
  2.8064e+05   5.24e-22
  2.8532e+05   4.90e-22
  2.9009e+05   4.58e-22
  2.9493e+05   4.27e-22
  2.9986e+05   3.96e-22
  3.0487e+05   3.67e-22
  3.0996e+05   3.43e-22
  3.1513e+05   3.21e-22
  3.2040e+05   2.99e-22
  3.2575e+05   2.78e-22
  3.3119e+05   2.57e-22
  3.3672e+05   2.38e-22
  3.4234e+05   2.19e-22
  3.4806e+05   2.04e-22
  3.5387e+05   1.90e-22
  3.5978e+05   1.76e-22
  3.6579e+05   1.63e-22
  3.7190e+05   1.50e-22
  3.7811e+05   1.38e-22
  3.8442e+05   1.26e-22
  3.9084e+05   1.17e-22
  3.9737e+05   1.09e-22
  4.0401e+05   1.01e-22
  4.1075e+05   9.26e-23
  4.1761e+05   8.50e-23
  4.2459e+05   7.76e-23
  4.3168e+05   7.05e-23
  4.3889e+05   6.53e-23
  4.4622e+05   6.04e-23
  4.5367e+05   5.56e-23
  4.6124e+05   5.10e-23
  4.6895e+05   4.65e-23
  4.7678e+05   4.22e-23
  4.8474e+05   3.81e-23
  4.9283e+05   3.52e-23
  5.0107e+05   3.23e-23
  5.0943e+05   2.96e-23
  5.1794e+05   2.70e-23
  5.2659e+05   2.44e-23
  5.3538e+05   2.20e-23
  5.4432e+05   1.97e-23
  5.5342e+05   1.81e-23
  5.6266e+05   1.66e-23
  5.7205e+05   1.51e-23
  5.8161e+05   1.37e-23
  5.9132e+05   1.23e-23
  6.0119e+05   1.10e-23
  6.1123e+05   9.81e-24
  6.2144e+05   8.96e-24
  6.3182e+05   8.14e-24
  6.4237e+05   7.36e-24
  6.5310e+05   6.61e-24
  6.6401e+05   5.88e-24
  6.7509e+05   5.19e-24
  6.8637e+05   4.56e-24
  6.9783e+05   4.13e-24
  7.0948e+05   3.71e-24
  7.2133e+05   3.31e-24
  7.3338e+05   2.93e-24
  7.4563e+05   2.56e-24
  7.5808e+05   2.21e-24
  7.7074e+05   1.91e-24
  7.8361e+05   1.75e-24
  7.9670e+05   1.60e-24
  8.1000e+05   1.45e-24
