#  E [MeV]   Flux [# cm^{-2} s^{-1}  MeV^{-1}]
  3.0000e+04   2.11e-21
  3.0854e+04   2.03e-21
  3.1733e+04   1.96e-21
  3.2636e+04   1.89e-21
  3.3566e+04   1.82e-21
  3.4521e+04   1.75e-21
  3.5504e+04   1.69e-21
  3.6515e+04   1.62e-21
  3.7555e+04   1.56e-21
  3.8625e+04   1.51e-21
  3.9724e+04   1.45e-21
  4.0855e+04   1.40e-21
  4.2019e+04   1.34e-21
  4.3215e+04   1.29e-21
  4.4446e+04   1.24e-21
  4.5711e+04   1.20e-21
  4.7013e+04   1.15e-21
  4.8352e+04   1.11e-21
  4.9728e+04   1.06e-21
  5.1144e+04   1.02e-21
  5.2601e+04   9.83e-22
  5.4099e+04   9.45e-22
  5.5639e+04   9.08e-22
  5.7223e+04   8.73e-22
  5.8853e+04   8.38e-22
  6.0528e+04   8.05e-22
  6.2252e+04   7.74e-22
  6.4025e+04   7.43e-22
  6.5848e+04   7.13e-22
  6.7723e+04   6.85e-22
  6.9651e+04   6.58e-22
  7.1634e+04   6.31e-22
  7.3674e+04   6.06e-22
  7.5772e+04   5.81e-22
  7.7929e+04   5.58e-22
  8.0148e+04   5.35e-22
  8.2431e+04   5.13e-22
  8.4778e+04   4.92e-22
  8.7192e+04   4.72e-22
  8.9674e+04   4.53e-22
  9.2228e+04   4.34e-22
  9.4854e+04   4.16e-22
  9.7555e+04   3.99e-22
  1.0033e+05   3.82e-22
  1.0319e+05   3.67e-22
  1.0613e+05   3.51e-22
  1.0915e+05   3.37e-22
  1.1226e+05   3.22e-22
  1.1545e+05   3.09e-22
  1.1874e+05   2.96e-22
  1.2212e+05   2.83e-22
  1.2560e+05   2.71e-22
  1.2918e+05   2.60e-22
  1.3286e+05   2.49e-22
  1.3664e+05   2.38e-22
  1.4053e+05   2.28e-22
  1.4453e+05   2.18e-22
  1.4865e+05   2.08e-22
  1.5288e+05   1.99e-22
  1.5723e+05   1.91e-22
  1.6171e+05   1.82e-22
  1.6631e+05   1.74e-22
  1.7105e+05   1.67e-22
  1.7592e+05   1.59e-22
  1.8093e+05   1.52e-22
  1.8608e+05   1.45e-22
  1.9138e+05   1.39e-22
  1.9683e+05   1.33e-22
  2.0243e+05   1.27e-22
  2.0820e+05   1.21e-22
  2.1413e+05   1.15e-22
  2.2022e+05   1.10e-22
  2.2649e+05   1.05e-22
  2.3294e+05   1.00e-22
  2.3958e+05   9.55e-23
  2.4640e+05   9.11e-23
  2.5341e+05   8.68e-23
  2.6063e+05   8.27e-23
  2.6805e+05   7.88e-23
  2.7568e+05   7.51e-23
  2.8353e+05   7.15e-23
  2.9161e+05   6.80e-23
  2.9991e+05   6.47e-23
  3.0845e+05   6.16e-23
  3.1723e+05   5.86e-23
  3.2627e+05   5.57e-23
  3.3556e+05   5.30e-23
  3.4511e+05   5.03e-23
  3.5494e+05   4.78e-23
  3.6504e+05   4.54e-23
  3.7544e+05   4.31e-23
  3.8613e+05   4.10e-23
  3.9712e+05   3.89e-23
  4.0843e+05   3.68e-23
  4.2006e+05   3.49e-23
  4.3202e+05   3.31e-23
  4.4432e+05   3.14e-23
  4.5698e+05   2.98e-23
  4.6999e+05   2.82e-23
  4.8337e+05   2.67e-23
  4.9713e+05   2.53e-23
  5.1129e+05   2.39e-23
  5.2585e+05   2.26e-23
  5.4082e+05   2.14e-23
  5.5622e+05   2.03e-23
  5.7206e+05   1.92e-23
  5.8835e+05   1.81e-23
  6.0510e+05   1.72e-23
  6.2233e+05   1.62e-23
  6.4005e+05   1.54e-23
  6.5828e+05   1.45e-23
  6.7702e+05   1.37e-23
  6.9630e+05   1.30e-23
  7.1613e+05   1.23e-23
  7.3652e+05   1.16e-23
  7.5749e+05   1.10e-23
  7.7906e+05   1.04e-23
  8.0124e+05   9.80e-24
  8.2406e+05   9.27e-24
  8.4752e+05   8.77e-24
  8.7165e+05   8.30e-24
  8.9647e+05   7.85e-24
  9.2200e+05   7.43e-24
  9.4825e+05   7.04e-24
  9.7526e+05   6.67e-24
  1.0030e+06   6.32e-24
  1.0316e+06   5.99e-24
  1.0610e+06   5.69e-24
  1.0912e+06   5.39e-24
  1.1222e+06   5.12e-24
  1.1542e+06   4.86e-24
  1.1871e+06   4.62e-24
  1.2209e+06   4.38e-24
  1.2556e+06   4.17e-24
  1.2914e+06   3.96e-24
  1.3281e+06   3.77e-24
  1.3660e+06   3.58e-24
  1.4049e+06   3.41e-24
  1.4449e+06   3.25e-24
  1.4860e+06   3.09e-24
  1.5283e+06   2.95e-24
  1.5718e+06   2.81e-24
  1.6166e+06   2.68e-24
  1.6626e+06   2.55e-24
  1.7100e+06   2.43e-24
  1.7587e+06   2.32e-24
  1.8087e+06   2.22e-24
  1.8602e+06   2.12e-24
  1.9132e+06   2.02e-24
  1.9677e+06   1.93e-24
  2.0237e+06   1.84e-24
  2.0813e+06   1.76e-24
  2.1406e+06   1.68e-24
  2.2016e+06   1.60e-24
  2.2642e+06   1.53e-24
  2.3287e+06   1.46e-24
  2.3950e+06   1.39e-24
  2.4632e+06   1.33e-24
  2.5334e+06   1.27e-24
  2.6055e+06   1.21e-24
  2.6797e+06   1.15e-24
  2.7560e+06   1.10e-24
  2.8345e+06   1.05e-24
  2.9152e+06   9.98e-25
  2.9982e+06   9.49e-25
  3.0836e+06   9.03e-25
  3.1714e+06   8.58e-25
  3.2617e+06   8.15e-25
  3.3545e+06   7.74e-25
  3.4501e+06   7.34e-25
  3.5483e+06   6.96e-25
  3.6493e+06   6.60e-25
  3.7532e+06   6.25e-25
  3.8601e+06   5.91e-25
  3.9700e+06   5.58e-25
  4.0831e+06   5.27e-25
  4.1993e+06   4.97e-25
  4.3189e+06   4.68e-25
  4.4419e+06   4.41e-25
  4.5684e+06   4.14e-25
  4.6985e+06   3.89e-25
  4.8322e+06   3.65e-25
  4.9698e+06   3.41e-25
  5.1114e+06   3.19e-25
  5.2569e+06   2.98e-25
  5.4066e+06   2.78e-25
  5.5605e+06   2.58e-25
  5.7189e+06   2.40e-25
  5.8817e+06   2.22e-25
  6.0492e+06   2.05e-25
  6.2214e+06   1.89e-25
  6.3986e+06   1.74e-25
  6.5808e+06   1.60e-25
  6.7682e+06   1.46e-25
  6.9609e+06   1.33e-25
  7.1591e+06   1.21e-25
  7.3630e+06   1.09e-25
  7.5726e+06   9.91e-26
  7.7882e+06   8.97e-26
  8.0100e+06   8.08e-26
