#  E [GeV]   # per interaction  [GeV^{-1}]
  3.0000e+01   4.24e-01
  3.0962e+01   4.10e-01
  3.1955e+01   3.95e-01
  3.2979e+01   3.81e-01
  3.4037e+01   3.68e-01
  3.5128e+01   3.55e-01
  3.6254e+01   3.42e-01
  3.7417e+01   3.30e-01
  3.8616e+01   3.19e-01
  3.9855e+01   3.07e-01
  4.1132e+01   2.96e-01
  4.2451e+01   2.85e-01
  4.3812e+01   2.75e-01
  4.5217e+01   2.65e-01
  4.6667e+01   2.55e-01
  4.8163e+01   2.46e-01
  4.9707e+01   2.37e-01
  5.1301e+01   2.28e-01
  5.2946e+01   2.19e-01
  5.4644e+01   2.11e-01
  5.6396e+01   2.03e-01
  5.8204e+01   1.96e-01
  6.0070e+01   1.88e-01
  6.1996e+01   1.81e-01
  6.3984e+01   1.74e-01
  6.6035e+01   1.67e-01
  6.8153e+01   1.61e-01
  7.0338e+01   1.54e-01
  7.2593e+01   1.48e-01
  7.4921e+01   1.42e-01
  7.7323e+01   1.37e-01
  7.9802e+01   1.31e-01
  8.2361e+01   1.26e-01
  8.5002e+01   1.21e-01
  8.7727e+01   1.16e-01
  9.0540e+01   1.11e-01
  9.3443e+01   1.06e-01
  9.6439e+01   1.02e-01
  9.9531e+01   9.78e-02
  1.0272e+02   9.36e-02
  1.0602e+02   8.97e-02
  1.0942e+02   8.58e-02
  1.1292e+02   8.21e-02
  1.1654e+02   7.86e-02
  1.2028e+02   7.51e-02
  1.2414e+02   7.18e-02
  1.2812e+02   6.86e-02
  1.3223e+02   6.56e-02
  1.3646e+02   6.26e-02
  1.4084e+02   5.98e-02
  1.4536e+02   5.71e-02
  1.5002e+02   5.45e-02
  1.5483e+02   5.20e-02
  1.5979e+02   4.96e-02
  1.6491e+02   4.72e-02
  1.7020e+02   4.50e-02
  1.7566e+02   4.29e-02
  1.8129e+02   4.08e-02
  1.8710e+02   3.89e-02
  1.9310e+02   3.70e-02
  1.9929e+02   3.52e-02
  2.0568e+02   3.34e-02
  2.1228e+02   3.18e-02
  2.1909e+02   3.02e-02
  2.2611e+02   2.87e-02
  2.3336e+02   2.72e-02
  2.4084e+02   2.58e-02
  2.4856e+02   2.45e-02
  2.5653e+02   2.32e-02
  2.6476e+02   2.20e-02
  2.7325e+02   2.08e-02
  2.8201e+02   1.97e-02
  2.9105e+02   1.87e-02
  3.0038e+02   1.77e-02
  3.1002e+02   1.67e-02
  3.1996e+02   1.58e-02
  3.3021e+02   1.49e-02
  3.4080e+02   1.41e-02
  3.5173e+02   1.33e-02
  3.6301e+02   1.26e-02
  3.7465e+02   1.18e-02
  3.8666e+02   1.12e-02
  3.9905e+02   1.05e-02
  4.1185e+02   9.89e-03
  4.2506e+02   9.30e-03
  4.3868e+02   8.75e-03
  4.5275e+02   8.22e-03
  4.6727e+02   7.73e-03
  4.8225e+02   7.25e-03
  4.9771e+02   6.80e-03
  5.1367e+02   6.38e-03
  5.3014e+02   5.98e-03
  5.4714e+02   5.60e-03
  5.6468e+02   5.25e-03
  5.8278e+02   4.92e-03
  6.0147e+02   4.60e-03
  6.2075e+02   4.30e-03
  6.4066e+02   4.02e-03
  6.6120e+02   3.76e-03
  6.8240e+02   3.51e-03
  7.0428e+02   3.27e-03
  7.2686e+02   3.05e-03
  7.5017e+02   2.85e-03
  7.7422e+02   2.65e-03
  7.9904e+02   2.47e-03
  8.2466e+02   2.30e-03
  8.5110e+02   2.14e-03
  8.7839e+02   1.99e-03
  9.0656e+02   1.85e-03
  9.3562e+02   1.72e-03
  9.6562e+02   1.60e-03
  9.9658e+02   1.48e-03
  1.0285e+03   1.38e-03
  1.0615e+03   1.28e-03
  1.0956e+03   1.19e-03
  1.1307e+03   1.10e-03
  1.1669e+03   1.02e-03
  1.2043e+03   9.47e-04
  1.2430e+03   8.76e-04
  1.2828e+03   8.11e-04
  1.3239e+03   7.50e-04
  1.3664e+03   6.93e-04
  1.4102e+03   6.40e-04
  1.4554e+03   5.92e-04
  1.5021e+03   5.47e-04
  1.5502e+03   5.04e-04
  1.6000e+03   4.66e-04
  1.6513e+03   4.30e-04
  1.7042e+03   3.96e-04
  1.7588e+03   3.65e-04
  1.8152e+03   3.37e-04
  1.8734e+03   3.10e-04
  1.9335e+03   2.84e-04
  1.9955e+03   2.62e-04
  2.0595e+03   2.41e-04
  2.1255e+03   2.21e-04
  2.1937e+03   2.03e-04
  2.2640e+03   1.86e-04
  2.3366e+03   1.71e-04
  2.4115e+03   1.56e-04
  2.4888e+03   1.43e-04
  2.5686e+03   1.31e-04
  2.6510e+03   1.20e-04
  2.7360e+03   1.10e-04
  2.8237e+03   1.00e-04
  2.9142e+03   9.18e-05
  3.0077e+03   8.37e-05
  3.1041e+03   7.62e-05
  3.2036e+03   6.96e-05
  3.3064e+03   6.35e-05
  3.4124e+03   5.76e-05
  3.5218e+03   5.24e-05
  3.6347e+03   4.77e-05
  3.7512e+03   4.34e-05
  3.8715e+03   3.92e-05
  3.9957e+03   3.57e-05
  4.1238e+03   3.25e-05
  4.2560e+03   2.94e-05
  4.3924e+03   2.66e-05
  4.5333e+03   2.42e-05
  4.6786e+03   2.20e-05
  4.8286e+03   1.99e-05
  4.9835e+03   1.80e-05
  5.1433e+03   1.64e-05
  5.3082e+03   1.49e-05
  5.4784e+03   1.34e-05
  5.6540e+03   1.22e-05
  5.8353e+03   1.11e-05
  6.0224e+03   1.01e-05
  6.2155e+03   9.18e-06
  6.4148e+03   8.42e-06
  6.6205e+03   7.71e-06
  6.8327e+03   7.03e-06
  7.0518e+03   6.46e-06
  7.2779e+03   5.96e-06
  7.5113e+03   5.50e-06
  7.7521e+03   5.05e-06
  8.0007e+03   4.71e-06
  8.2572e+03   4.39e-06
  8.5219e+03   4.08e-06
  8.7952e+03   3.80e-06
  9.0772e+03   3.58e-06
  9.3682e+03   3.37e-06
  9.6686e+03   3.17e-06
  9.9786e+03   3.02e-06
  1.0299e+04   2.90e-06
  1.0629e+04   2.77e-06
  1.0970e+04   2.65e-06
  1.1321e+04   2.61e-06
  1.1684e+04   2.55e-06
  1.2059e+04   2.48e-06
  1.2446e+04   2.47e-06
  1.2845e+04   2.55e-06
  1.3256e+04   2.59e-06
  1.3681e+04   2.59e-06
  1.4120e+04   2.89e-06
  1.4573e+04   3.24e-06
  1.5040e+04   3.48e-06
  1.5522e+04   3.60e-06
  1.6020e+04   3.44e-06
