#  E [MeV]   Flux [# cm^{-2} s^{-1}  MeV^{-1}]
  3.0000e+04   5.93e-26
  3.1232e+04   5.67e-26
  3.2514e+04   5.42e-26
  3.3849e+04   5.18e-26
  3.5238e+04   4.95e-26
  3.6685e+04   4.73e-26
  3.8191e+04   4.52e-26
  3.9759e+04   4.32e-26
  4.1391e+04   4.12e-26
  4.3090e+04   3.94e-26
  4.4859e+04   3.76e-26
  4.6701e+04   3.59e-26
  4.8618e+04   3.43e-26
  5.0614e+04   3.28e-26
  5.2692e+04   3.13e-26
  5.4855e+04   2.99e-26
  5.7107e+04   2.85e-26
  5.9451e+04   2.72e-26
  6.1892e+04   2.60e-26
  6.4433e+04   2.48e-26
  6.7078e+04   2.37e-26
  6.9832e+04   2.26e-26
  7.2699e+04   2.15e-26
  7.5683e+04   2.05e-26
  7.8790e+04   1.96e-26
  8.2025e+04   1.87e-26
  8.5392e+04   1.78e-26
  8.8898e+04   1.70e-26
  9.2547e+04   1.62e-26
  9.6347e+04   1.54e-26
  1.0030e+05   1.47e-26
  1.0442e+05   1.40e-26
  1.0871e+05   1.33e-26
  1.1317e+05   1.27e-26
  1.1782e+05   1.21e-26
  1.2265e+05   1.15e-26
  1.2769e+05   1.10e-26
  1.3293e+05   1.04e-26
  1.3839e+05   9.91e-27
  1.4407e+05   9.42e-27
  1.4998e+05   8.96e-27
  1.5614e+05   8.51e-27
  1.6255e+05   8.09e-27
  1.6922e+05   7.68e-27
  1.7617e+05   7.29e-27
  1.8340e+05   6.92e-27
  1.9093e+05   6.57e-27
  1.9877e+05   6.23e-27
  2.0693e+05   5.90e-27
  2.1543e+05   5.59e-27
  2.2427e+05   5.30e-27
  2.3348e+05   5.01e-27
  2.4306e+05   4.74e-27
  2.5304e+05   4.49e-27
  2.6343e+05   4.24e-27
  2.7424e+05   4.01e-27
  2.8550e+05   3.78e-27
  2.9722e+05   3.57e-27
  3.0942e+05   3.36e-27
  3.2213e+05   3.17e-27
  3.3535e+05   2.98e-27
  3.4912e+05   2.80e-27
  3.6345e+05   2.64e-27
  3.7837e+05   2.48e-27
  3.9390e+05   2.32e-27
  4.1008e+05   2.18e-27
  4.2691e+05   2.04e-27
  4.4444e+05   1.91e-27
  4.6268e+05   1.79e-27
  4.8168e+05   1.67e-27
  5.0145e+05   1.56e-27
  5.2204e+05   1.46e-27
  5.4347e+05   1.36e-27
  5.6578e+05   1.27e-27
  5.8901e+05   1.18e-27
  6.1319e+05   1.10e-27
  6.3836e+05   1.02e-27
  6.6457e+05   9.52e-28
  6.9185e+05   8.84e-28
  7.2025e+05   8.21e-28
  7.4982e+05   7.62e-28
  7.8061e+05   7.07e-28
  8.1265e+05   6.56e-28
  8.4601e+05   6.08e-28
  8.8075e+05   5.63e-28
  9.1690e+05   5.21e-28
  9.5455e+05   4.83e-28
  9.9373e+05   4.47e-28
  1.0345e+06   4.14e-28
  1.0770e+06   3.83e-28
  1.1212e+06   3.54e-28
  1.1672e+06   3.28e-28
  1.2152e+06   3.03e-28
  1.2650e+06   2.80e-28
  1.3170e+06   2.59e-28
  1.3711e+06   2.39e-28
  1.4273e+06   2.21e-28
  1.4859e+06   2.05e-28
  1.5469e+06   1.89e-28
  1.6104e+06   1.75e-28
  1.6766e+06   1.61e-28
  1.7454e+06   1.49e-28
  1.8170e+06   1.38e-28
  1.8916e+06   1.27e-28
  1.9693e+06   1.17e-28
  2.0501e+06   1.08e-28
  2.1343e+06   9.97e-29
  2.2219e+06   9.19e-29
  2.3131e+06   8.46e-29
  2.4081e+06   7.78e-29
  2.5070e+06   7.16e-29
  2.6099e+06   6.59e-29
  2.7170e+06   6.05e-29
  2.8286e+06   5.55e-29
  2.9447e+06   5.09e-29
  3.0656e+06   4.66e-29
  3.1914e+06   4.27e-29
  3.3225e+06   3.91e-29
  3.4589e+06   3.57e-29
  3.6008e+06   3.26e-29
  3.7487e+06   2.97e-29
  3.9026e+06   2.70e-29
  4.0628e+06   2.45e-29
  4.2296e+06   2.23e-29
  4.4032e+06   2.02e-29
  4.5840e+06   1.82e-29
  4.7722e+06   1.64e-29
  4.9681e+06   1.48e-29
  5.1720e+06   1.33e-29
  5.3844e+06   1.19e-29
  5.6054e+06   1.07e-29
  5.8355e+06   9.54e-30
  6.0751e+06   8.48e-30
  6.3245e+06   7.55e-30
  6.5841e+06   6.68e-30
  6.8544e+06   5.89e-30
  7.1358e+06   5.19e-30
  7.4288e+06   4.55e-30
  7.7338e+06   3.97e-30
  8.0513e+06   3.46e-30
  8.3818e+06   2.99e-30
  8.7259e+06   2.57e-30
  9.0841e+06   2.21e-30
  9.4571e+06   1.88e-30
  9.8453e+06   1.59e-30
  1.0249e+07   1.34e-30
  1.0670e+07   1.12e-30
  1.1108e+07   9.26e-31
  1.1564e+07   7.61e-31
  1.2039e+07   6.17e-31
  1.2533e+07   4.98e-31
  1.3048e+07   3.96e-31
  1.3584e+07   3.09e-31
  1.4141e+07   2.40e-31
  1.4722e+07   1.82e-31
  1.5326e+07   1.35e-31
  1.5955e+07   9.93e-32
  1.6610e+07   7.07e-32
  1.7292e+07   4.90e-32
  1.8002e+07   3.30e-32
  1.8741e+07   2.14e-32
  1.9511e+07   1.33e-32
  2.0312e+07   7.94e-33
  2.1145e+07   4.45e-33
  2.2013e+07   2.35e-33
  2.2917e+07   1.15e-33
  2.3858e+07   5.15e-34
  2.4837e+07   2.08e-34
  2.5857e+07   7.43e-35
  2.6919e+07   2.27e-35
  2.8024e+07   5.85e-36
  2.9174e+07   1.21e-36
  3.0372e+07   1.91e-37
  3.1619e+07   2.20e-38
  3.2917e+07   1.70e-39
  3.4268e+07   7.92e-41
  3.5675e+07   2.02e-42
  3.7140e+07   2.34e-44
  3.8664e+07   1.00e-46
  4.0252e+07   1.22e-49
  4.1904e+07   2.88e-53
  4.3624e+07   8.02e-58
  4.5415e+07   1.36e-63
  4.7280e+07   5.49e-71
  4.9221e+07   1.35e-71
  5.1241e+07   1.31e-71
  5.3345e+07   1.27e-71
  5.5535e+07   1.26e-71
  5.7815e+07   1.26e-71
  6.0188e+07   1.26e-71
  6.2659e+07   1.30e-71
  6.5232e+07   1.35e-71
  6.7910e+07   1.40e-71
  7.0698e+07   1.58e-71
  7.3600e+07   1.75e-71
  7.6621e+07   1.97e-71
  7.9767e+07   2.79e-71
  8.3042e+07   3.54e-71
  8.6451e+07   4.48e-71
  9.0000e+07   6.22e-71
