#  E [MeV]   Flux [# cm^{-2} s^{-1}  MeV^{-1}]
  3.0000e+04   2.79e-20
  3.0675e+04   2.71e-20
  3.1366e+04   2.62e-20
  3.2072e+04   2.54e-20
  3.2794e+04   2.46e-20
  3.3533e+04   2.38e-20
  3.4288e+04   2.31e-20
  3.5060e+04   2.24e-20
  3.5849e+04   2.17e-20
  3.6656e+04   2.10e-20
  3.7482e+04   2.03e-20
  3.8326e+04   1.97e-20
  3.9188e+04   1.91e-20
  4.0071e+04   1.85e-20
  4.0973e+04   1.79e-20
  4.1896e+04   1.73e-20
  4.2839e+04   1.68e-20
  4.3803e+04   1.62e-20
  4.4790e+04   1.57e-20
  4.5798e+04   1.52e-20
  4.6829e+04   1.48e-20
  4.7884e+04   1.43e-20
  4.8962e+04   1.38e-20
  5.0064e+04   1.34e-20
  5.1191e+04   1.30e-20
  5.2344e+04   1.26e-20
  5.3522e+04   1.22e-20
  5.4727e+04   1.18e-20
  5.5960e+04   1.14e-20
  5.7219e+04   1.11e-20
  5.8508e+04   1.07e-20
  5.9825e+04   1.04e-20
  6.1172e+04   1.00e-20
  6.2549e+04   9.73e-21
  6.3958e+04   9.42e-21
  6.5398e+04   9.13e-21
  6.6870e+04   8.84e-21
  6.8376e+04   8.56e-21
  6.9915e+04   8.29e-21
  7.1489e+04   8.03e-21
  7.3099e+04   7.78e-21
  7.4745e+04   7.54e-21
  7.6428e+04   7.30e-21
  7.8148e+04   7.07e-21
  7.9908e+04   6.85e-21
  8.1707e+04   6.64e-21
  8.3547e+04   6.43e-21
  8.5428e+04   6.23e-21
  8.7351e+04   6.04e-21
  8.9318e+04   5.85e-21
  9.1329e+04   5.67e-21
  9.3385e+04   5.49e-21
  9.5488e+04   5.32e-21
  9.7638e+04   5.16e-21
  9.9836e+04   5.00e-21
  1.0208e+05   4.84e-21
  1.0438e+05   4.69e-21
  1.0673e+05   4.55e-21
  1.0914e+05   4.41e-21
  1.1159e+05   4.27e-21
  1.1411e+05   4.14e-21
  1.1667e+05   4.02e-21
  1.1930e+05   3.89e-21
  1.2199e+05   3.78e-21
  1.2473e+05   3.66e-21
  1.2754e+05   3.55e-21
  1.3041e+05   3.44e-21
  1.3335e+05   3.34e-21
  1.3635e+05   3.24e-21
  1.3942e+05   3.14e-21
  1.4256e+05   3.05e-21
  1.4577e+05   2.96e-21
  1.4905e+05   2.87e-21
  1.5241e+05   2.78e-21
  1.5584e+05   2.70e-21
  1.5935e+05   2.62e-21
  1.6294e+05   2.54e-21
  1.6661e+05   2.47e-21
  1.7036e+05   2.39e-21
  1.7419e+05   2.32e-21
  1.7812e+05   2.25e-21
  1.8213e+05   2.19e-21
  1.8623e+05   2.12e-21
  1.9042e+05   2.06e-21
  1.9471e+05   2.00e-21
  1.9909e+05   1.94e-21
  2.0357e+05   1.89e-21
  2.0816e+05   1.83e-21
  2.1284e+05   1.78e-21
  2.1763e+05   1.73e-21
  2.2253e+05   1.68e-21
  2.2755e+05   1.63e-21
  2.3267e+05   1.58e-21
  2.3791e+05   1.54e-21
  2.4326e+05   1.49e-21
  2.4874e+05   1.45e-21
  2.5434e+05   1.41e-21
  2.6007e+05   1.37e-21
  2.6592e+05   1.33e-21
  2.7191e+05   1.29e-21
  2.7803e+05   1.25e-21
  2.8429e+05   1.22e-21
  2.9069e+05   1.18e-21
  2.9724e+05   1.15e-21
  3.0393e+05   1.12e-21
  3.1077e+05   1.08e-21
  3.1777e+05   1.05e-21
  3.2493e+05   1.02e-21
  3.3224e+05   9.95e-22
  3.3972e+05   9.67e-22
  3.4737e+05   9.40e-22
  3.5519e+05   9.13e-22
  3.6319e+05   8.87e-22
  3.7137e+05   8.62e-22
  3.7973e+05   8.38e-22
  3.8828e+05   8.14e-22
  3.9702e+05   7.91e-22
  4.0596e+05   7.69e-22
  4.1510e+05   7.47e-22
  4.2444e+05   7.26e-22
  4.3400e+05   7.05e-22
  4.4377e+05   6.85e-22
  4.5376e+05   6.66e-22
  4.6398e+05   6.47e-22
  4.7443e+05   6.29e-22
  4.8511e+05   6.11e-22
  4.9603e+05   5.93e-22
  5.0720e+05   5.76e-22
  5.1862e+05   5.60e-22
  5.3030e+05   5.44e-22
  5.4224e+05   5.28e-22
  5.5444e+05   5.13e-22
  5.6693e+05   4.98e-22
  5.7969e+05   4.83e-22
  5.9274e+05   4.69e-22
  6.0609e+05   4.55e-22
  6.1974e+05   4.42e-22
  6.3369e+05   4.29e-22
  6.4796e+05   4.16e-22
  6.6255e+05   4.04e-22
  6.7746e+05   3.92e-22
  6.9272e+05   3.80e-22
  7.0831e+05   3.69e-22
  7.2426e+05   3.58e-22
  7.4057e+05   3.47e-22
  7.5724e+05   3.37e-22
  7.7429e+05   3.27e-22
  7.9172e+05   3.17e-22
  8.0955e+05   3.07e-22
  8.2778e+05   2.98e-22
  8.4641e+05   2.89e-22
  8.6547e+05   2.80e-22
  8.8496e+05   2.71e-22
  9.0488e+05   2.63e-22
  9.2526e+05   2.55e-22
  9.4609e+05   2.47e-22
  9.6739e+05   2.39e-22
  9.8917e+05   2.32e-22
  1.0114e+06   2.25e-22
  1.0342e+06   2.18e-22
  1.0575e+06   2.11e-22
  1.0813e+06   2.04e-22
  1.1057e+06   1.97e-22
  1.1305e+06   1.91e-22
  1.1560e+06   1.85e-22
  1.1820e+06   1.79e-22
  1.2086e+06   1.73e-22
  1.2359e+06   1.68e-22
  1.2637e+06   1.62e-22
  1.2921e+06   1.57e-22
  1.3212e+06   1.52e-22
  1.3510e+06   1.47e-22
  1.3814e+06   1.42e-22
  1.4125e+06   1.38e-22
  1.4443e+06   1.33e-22
  1.4768e+06   1.29e-22
  1.5101e+06   1.24e-22
  1.5441e+06   1.20e-22
  1.5788e+06   1.16e-22
  1.6144e+06   1.12e-22
  1.6507e+06   1.09e-22
  1.6879e+06   1.05e-22
  1.7259e+06   1.01e-22
  1.7648e+06   9.80e-23
  1.8045e+06   9.47e-23
  1.8451e+06   9.14e-23
  1.8867e+06   8.83e-23
  1.9291e+06   8.52e-23
  1.9726e+06   8.23e-23
  2.0170e+06   7.94e-23
  2.0624e+06   7.66e-23
  2.1088e+06   7.39e-23
  2.1563e+06   7.13e-23
  2.2049e+06   6.87e-23
  2.2545e+06   6.62e-23
  2.3053e+06   6.38e-23
  2.3572e+06   6.14e-23
  2.4102e+06   5.91e-23
  2.4645e+06   5.69e-23
  2.5200e+06   5.50e-23
