#  E [GeV]   # per interaction  [GeV^{-1}]
  3.0000e+01   2.52e-02
  3.1123e+01   2.43e-02
  3.2288e+01   2.33e-02
  3.3497e+01   2.24e-02
  3.4751e+01   2.16e-02
  3.6051e+01   2.07e-02
  3.7401e+01   1.99e-02
  3.8801e+01   1.91e-02
  4.0253e+01   1.84e-02
  4.1760e+01   1.76e-02
  4.3324e+01   1.69e-02
  4.4945e+01   1.62e-02
  4.6628e+01   1.56e-02
  4.8373e+01   1.49e-02
  5.0184e+01   1.43e-02
  5.2063e+01   1.37e-02
  5.4011e+01   1.32e-02
  5.6033e+01   1.26e-02
  5.8131e+01   1.21e-02
  6.0307e+01   1.16e-02
  6.2564e+01   1.11e-02
  6.4906e+01   1.06e-02
  6.7336e+01   1.01e-02
  6.9857e+01   9.70e-03
  7.2472e+01   9.27e-03
  7.5184e+01   8.86e-03
  7.7999e+01   8.47e-03
  8.0919e+01   8.09e-03
  8.3948e+01   7.73e-03
  8.7090e+01   7.38e-03
  9.0350e+01   7.04e-03
  9.3732e+01   6.72e-03
  9.7241e+01   6.41e-03
  1.0088e+02   6.11e-03
  1.0466e+02   5.82e-03
  1.0858e+02   5.55e-03
  1.1264e+02   5.29e-03
  1.1686e+02   5.03e-03
  1.2123e+02   4.79e-03
  1.2577e+02   4.56e-03
  1.3048e+02   4.33e-03
  1.3536e+02   4.12e-03
  1.4043e+02   3.91e-03
  1.4568e+02   3.72e-03
  1.5114e+02   3.53e-03
  1.5680e+02   3.35e-03
  1.6266e+02   3.17e-03
  1.6875e+02   3.01e-03
  1.7507e+02   2.85e-03
  1.8162e+02   2.70e-03
  1.8842e+02   2.55e-03
  1.9548e+02   2.41e-03
  2.0279e+02   2.28e-03
  2.1039e+02   2.15e-03
  2.1826e+02   2.03e-03
  2.2643e+02   1.92e-03
  2.3491e+02   1.81e-03
  2.4370e+02   1.70e-03
  2.5282e+02   1.60e-03
  2.6229e+02   1.50e-03
  2.7211e+02   1.41e-03
  2.8229e+02   1.33e-03
  2.9286e+02   1.24e-03
  3.0382e+02   1.17e-03
  3.1519e+02   1.09e-03
  3.2699e+02   1.02e-03
  3.3923e+02   9.55e-04
  3.5193e+02   8.92e-04
  3.6511e+02   8.32e-04
  3.7877e+02   7.76e-04
  3.9295e+02   7.22e-04
  4.0766e+02   6.72e-04
  4.2292e+02   6.25e-04
  4.3875e+02   5.80e-04
  4.5518e+02   5.39e-04
  4.7222e+02   4.99e-04
  4.8989e+02   4.63e-04
  5.0823e+02   4.28e-04
  5.2726e+02   3.96e-04
  5.4699e+02   3.67e-04
  5.6747e+02   3.39e-04
  5.8871e+02   3.13e-04
  6.1075e+02   2.89e-04
  6.3361e+02   2.66e-04
  6.5733e+02   2.45e-04
  6.8194e+02   2.26e-04
  7.0746e+02   2.08e-04
  7.3395e+02   1.92e-04
  7.6142e+02   1.77e-04
  7.8992e+02   1.63e-04
  8.1949e+02   1.50e-04
  8.5017e+02   1.38e-04
  8.8199e+02   1.28e-04
  9.1501e+02   1.18e-04
  9.4926e+02   1.08e-04
  9.8479e+02   1.00e-04
  1.0217e+03   9.23e-05
  1.0599e+03   8.52e-05
  1.0996e+03   7.87e-05
  1.1407e+03   7.27e-05
  1.1834e+03   6.72e-05
  1.2277e+03   6.23e-05
  1.2737e+03   5.77e-05
  1.3214e+03   5.34e-05
  1.3708e+03   4.96e-05
  1.4222e+03   4.60e-05
  1.4754e+03   4.27e-05
  1.5306e+03   3.97e-05
  1.5879e+03   3.69e-05
  1.6474e+03   3.43e-05
  1.7090e+03   3.20e-05
  1.7730e+03   2.98e-05
  1.8394e+03   2.78e-05
  1.9082e+03   2.59e-05
  1.9797e+03   2.42e-05
  2.0538e+03   2.26e-05
  2.1306e+03   2.11e-05
  2.2104e+03   1.98e-05
  2.2931e+03   1.85e-05
  2.3790e+03   1.73e-05
  2.4680e+03   1.62e-05
  2.5604e+03   1.51e-05
  2.6563e+03   1.42e-05
  2.7557e+03   1.33e-05
  2.8589e+03   1.24e-05
  2.9659e+03   1.16e-05
  3.0769e+03   1.09e-05
  3.1921e+03   1.02e-05
  3.3116e+03   9.51e-06
  3.4355e+03   8.89e-06
  3.5641e+03   8.30e-06
  3.6976e+03   7.75e-06
  3.8360e+03   7.23e-06
  3.9796e+03   6.73e-06
  4.1285e+03   6.26e-06
  4.2831e+03   5.82e-06
  4.4434e+03   5.40e-06
  4.6097e+03   5.00e-06
  4.7823e+03   4.63e-06
  4.9613e+03   4.28e-06
  5.1470e+03   3.94e-06
  5.3397e+03   3.63e-06
  5.5396e+03   3.33e-06
  5.7470e+03   3.04e-06
  5.9621e+03   2.78e-06
  6.1853e+03   2.53e-06
  6.4168e+03   2.29e-06
  6.6570e+03   2.07e-06
  6.9062e+03   1.86e-06
  7.1647e+03   1.66e-06
  7.4329e+03   1.48e-06
  7.7112e+03   1.31e-06
  7.9998e+03   1.15e-06
  8.2993e+03   1.01e-06
  8.6100e+03   8.73e-07
  8.9323e+03   7.51e-07
  9.2666e+03   6.41e-07
  9.6135e+03   5.42e-07
  9.9734e+03   4.54e-07
  1.0347e+04   3.75e-07
  1.0734e+04   3.07e-07
  1.1136e+04   2.47e-07
  1.1553e+04   1.96e-07
  1.1985e+04   1.53e-07
  1.2434e+04   1.17e-07
  1.2899e+04   8.78e-08
  1.3382e+04   6.43e-08
  1.3883e+04   4.60e-08
  1.4403e+04   3.19e-08
  1.4942e+04   2.15e-08
  1.5501e+04   1.39e-08
  1.6081e+04   8.69e-09
  1.6683e+04   5.18e-09
  1.7308e+04   2.94e-09
  1.7956e+04   1.57e-09
  1.8628e+04   7.90e-10
  1.9325e+04   3.68e-10
  2.0049e+04   1.58e-10
  2.0799e+04   6.17e-11
  2.1578e+04   2.16e-11
  2.2386e+04   6.66e-12
  2.3224e+04   1.78e-12
  2.4093e+04   4.02e-13
  2.4995e+04   7.48e-14
  2.5930e+04   1.11e-14
  2.6901e+04   1.26e-15
  2.7908e+04   1.06e-16
  2.8953e+04   6.12e-18
  3.0037e+04   2.30e-19
  3.1161e+04   5.16e-21
  3.2327e+04   6.26e-23
  3.3537e+04   3.63e-25
  3.4793e+04   8.61e-28
  3.6095e+04   6.93e-31
  3.7446e+04   1.49e-34
  3.8848e+04   6.35e-39
  4.0302e+04   3.66e-44
  4.1811e+04   1.08e-46
  4.3376e+04   1.03e-46
  4.5000e+04   9.75e-47
