#  E [MeV]   Flux [# cm^{-2} s^{-1}  MeV^{-1}]
  3.0000e+04   4.87e-27
  3.1232e+04   4.69e-27
  3.2514e+04   4.50e-27
  3.3849e+04   4.33e-27
  3.5238e+04   4.16e-27
  3.6685e+04   3.99e-27
  3.8191e+04   3.84e-27
  3.9759e+04   3.68e-27
  4.1391e+04   3.54e-27
  4.3090e+04   3.39e-27
  4.4859e+04   3.26e-27
  4.6701e+04   3.12e-27
  4.8618e+04   3.00e-27
  5.0614e+04   2.87e-27
  5.2692e+04   2.75e-27
  5.4855e+04   2.64e-27
  5.7107e+04   2.53e-27
  5.9451e+04   2.42e-27
  6.1892e+04   2.32e-27
  6.4433e+04   2.22e-27
  6.7078e+04   2.13e-27
  6.9832e+04   2.03e-27
  7.2699e+04   1.95e-27
  7.5683e+04   1.86e-27
  7.8790e+04   1.78e-27
  8.2025e+04   1.70e-27
  8.5392e+04   1.63e-27
  8.8898e+04   1.55e-27
  9.2547e+04   1.48e-27
  9.6347e+04   1.42e-27
  1.0030e+05   1.35e-27
  1.0442e+05   1.29e-27
  1.0871e+05   1.23e-27
  1.1317e+05   1.17e-27
  1.1782e+05   1.12e-27
  1.2265e+05   1.07e-27
  1.2769e+05   1.02e-27
  1.3293e+05   9.67e-28
  1.3839e+05   9.20e-28
  1.4407e+05   8.76e-28
  1.4998e+05   8.33e-28
  1.5614e+05   7.92e-28
  1.6255e+05   7.52e-28
  1.6922e+05   7.15e-28
  1.7617e+05   6.79e-28
  1.8340e+05   6.44e-28
  1.9093e+05   6.11e-28
  1.9877e+05   5.79e-28
  2.0693e+05   5.49e-28
  2.1543e+05   5.20e-28
  2.2427e+05   4.93e-28
  2.3348e+05   4.66e-28
  2.4306e+05   4.41e-28
  2.5304e+05   4.17e-28
  2.6343e+05   3.94e-28
  2.7424e+05   3.72e-28
  2.8550e+05   3.51e-28
  2.9722e+05   3.31e-28
  3.0942e+05   3.12e-28
  3.2213e+05   2.94e-28
  3.3535e+05   2.76e-28
  3.4912e+05   2.60e-28
  3.6345e+05   2.44e-28
  3.7837e+05   2.30e-28
  3.9390e+05   2.16e-28
  4.1008e+05   2.02e-28
  4.2691e+05   1.90e-28
  4.4444e+05   1.78e-28
  4.6268e+05   1.66e-28
  4.8168e+05   1.56e-28
  5.0145e+05   1.46e-28
  5.2204e+05   1.36e-28
  5.4347e+05   1.27e-28
  5.6578e+05   1.19e-28
  5.8901e+05   1.11e-28
  6.1319e+05   1.03e-28
  6.3836e+05   9.64e-29
  6.6457e+05   8.98e-29
  6.9185e+05   8.36e-29
  7.2025e+05   7.79e-29
  7.4982e+05   7.25e-29
  7.8061e+05   6.75e-29
  8.1265e+05   6.28e-29
  8.4601e+05   5.84e-29
  8.8075e+05   5.43e-29
  9.1690e+05   5.05e-29
  9.5455e+05   4.69e-29
  9.9373e+05   4.37e-29
  1.0345e+06   4.06e-29
  1.0770e+06   3.77e-29
  1.1212e+06   3.51e-29
  1.1672e+06   3.26e-29
  1.2152e+06   3.03e-29
  1.2650e+06   2.82e-29
  1.3170e+06   2.62e-29
  1.3711e+06   2.44e-29
  1.4273e+06   2.27e-29
  1.4859e+06   2.11e-29
  1.5469e+06   1.97e-29
  1.6104e+06   1.83e-29
  1.6766e+06   1.71e-29
  1.7454e+06   1.59e-29
  1.8170e+06   1.48e-29
  1.8916e+06   1.38e-29
  1.9693e+06   1.28e-29
  2.0501e+06   1.20e-29
  2.1343e+06   1.12e-29
  2.2219e+06   1.04e-29
  2.3131e+06   9.69e-30
  2.4081e+06   9.02e-30
  2.5070e+06   8.41e-30
  2.6099e+06   7.84e-30
  2.7170e+06   7.30e-30
  2.8286e+06   6.81e-30
  2.9447e+06   6.35e-30
  3.0656e+06   5.92e-30
  3.1914e+06   5.52e-30
  3.3225e+06   5.15e-30
  3.4589e+06   4.79e-30
  3.6008e+06   4.47e-30
  3.7487e+06   4.16e-30
  3.9026e+06   3.87e-30
  4.0628e+06   3.61e-30
  4.2296e+06   3.36e-30
  4.4032e+06   3.12e-30
  4.5840e+06   2.90e-30
  4.7722e+06   2.70e-30
  4.9681e+06   2.50e-30
  5.1720e+06   2.32e-30
  5.3844e+06   2.15e-30
  5.6054e+06   2.00e-30
  5.8355e+06   1.85e-30
  6.0751e+06   1.71e-30
  6.3245e+06   1.58e-30
  6.5841e+06   1.46e-30
  6.8544e+06   1.34e-30
  7.1358e+06   1.23e-30
  7.4288e+06   1.13e-30
  7.7338e+06   1.04e-30
  8.0513e+06   9.48e-31
  8.3818e+06   8.64e-31
  8.7259e+06   7.85e-31
  9.0841e+06   7.12e-31
  9.4571e+06   6.43e-31
  9.8453e+06   5.79e-31
  1.0249e+07   5.19e-31
  1.0670e+07   4.62e-31
  1.1108e+07   4.10e-31
  1.1564e+07   3.61e-31
  1.2039e+07   3.16e-31
  1.2533e+07   2.74e-31
  1.3048e+07   2.36e-31
  1.3584e+07   2.01e-31
  1.4141e+07   1.69e-31
  1.4722e+07   1.41e-31
  1.5326e+07   1.15e-31
  1.5955e+07   9.29e-32
  1.6610e+07   7.35e-32
  1.7292e+07   5.69e-32
  1.8002e+07   4.30e-32
  1.8741e+07   3.16e-32
  1.9511e+07   2.24e-32
  2.0312e+07   1.53e-32
  2.1145e+07   1.00e-32
  2.2013e+07   6.23e-33
  2.2917e+07   3.64e-33
  2.3858e+07   1.98e-33
  2.4837e+07   9.87e-34
  2.5857e+07   4.46e-34
  2.6919e+07   1.78e-34
  2.8024e+07   6.16e-35
  2.9174e+07   1.79e-35
  3.0372e+07   4.20e-36
  3.1619e+07   7.60e-37
  3.2917e+07   9.97e-38
  3.4268e+07   8.80e-39
  3.5675e+07   4.72e-40
  3.7140e+07   1.36e-41
  3.8664e+07   1.78e-43
  4.0252e+07   8.52e-46
  4.1904e+07   1.12e-48
  4.3624e+07   2.71e-52
  4.5415e+07   7.26e-57
  4.7280e+07   1.05e-62
  4.9221e+07   3.03e-70
  5.1241e+07   2.00e-71
  5.3345e+07   1.89e-71
  5.5535e+07   1.78e-71
  5.7815e+07   1.68e-71
  6.0188e+07   1.59e-71
  6.2659e+07   1.50e-71
  6.5232e+07   1.41e-71
  6.7910e+07   1.33e-71
  7.0698e+07   1.25e-71
  7.3600e+07   1.17e-71
  7.6621e+07   1.10e-71
  7.9767e+07   1.03e-71
  8.3042e+07   9.68e-72
  8.6451e+07   9.06e-72
  9.0000e+07   8.52e-72
