#  E [MeV]   Flux [# cm^{-2} s^{-1}  MeV^{-1}]
  3.0000e+04   6.15e-23
  3.0696e+04   5.95e-23
  3.1408e+04   5.76e-23
  3.2137e+04   5.57e-23
  3.2883e+04   5.39e-23
  3.3646e+04   5.21e-23
  3.4426e+04   5.04e-23
  3.5225e+04   4.87e-23
  3.6042e+04   4.71e-23
  3.6878e+04   4.55e-23
  3.7734e+04   4.39e-23
  3.8609e+04   4.24e-23
  3.9505e+04   4.10e-23
  4.0422e+04   3.96e-23
  4.1360e+04   3.82e-23
  4.2319e+04   3.69e-23
  4.3301e+04   3.56e-23
  4.4306e+04   3.44e-23
  4.5334e+04   3.32e-23
  4.6386e+04   3.20e-23
  4.7462e+04   3.09e-23
  4.8563e+04   2.98e-23
  4.9690e+04   2.87e-23
  5.0843e+04   2.77e-23
  5.2022e+04   2.67e-23
  5.3229e+04   2.57e-23
  5.4464e+04   2.48e-23
  5.5728e+04   2.39e-23
  5.7021e+04   2.30e-23
  5.8344e+04   2.21e-23
  5.9697e+04   2.13e-23
  6.1083e+04   2.05e-23
  6.2500e+04   1.97e-23
  6.3950e+04   1.90e-23
  6.5434e+04   1.83e-23
  6.6952e+04   1.76e-23
  6.8505e+04   1.69e-23
  7.0095e+04   1.62e-23
  7.1721e+04   1.56e-23
  7.3385e+04   1.50e-23
  7.5088e+04   1.44e-23
  7.6830e+04   1.38e-23
  7.8612e+04   1.33e-23
  8.0436e+04   1.28e-23
  8.2302e+04   1.23e-23
  8.4212e+04   1.18e-23
  8.6166e+04   1.13e-23
  8.8165e+04   1.08e-23
  9.0210e+04   1.04e-23
  9.2304e+04   9.96e-24
  9.4445e+04   9.54e-24
  9.6636e+04   9.14e-24
  9.8878e+04   8.76e-24
  1.0117e+05   8.40e-24
  1.0352e+05   8.04e-24
  1.0592e+05   7.70e-24
  1.0838e+05   7.37e-24
  1.1089e+05   7.05e-24
  1.1347e+05   6.75e-24
  1.1610e+05   6.46e-24
  1.1879e+05   6.17e-24
  1.2155e+05   5.90e-24
  1.2437e+05   5.64e-24
  1.2725e+05   5.39e-24
  1.3021e+05   5.15e-24
  1.3323e+05   4.92e-24
  1.3632e+05   4.70e-24
  1.3948e+05   4.48e-24
  1.4272e+05   4.28e-24
  1.4603e+05   4.08e-24
  1.4942e+05   3.89e-24
  1.5288e+05   3.71e-24
  1.5643e+05   3.53e-24
  1.6006e+05   3.37e-24
  1.6377e+05   3.21e-24
  1.6757e+05   3.05e-24
  1.7146e+05   2.90e-24
  1.7544e+05   2.76e-24
  1.7951e+05   2.63e-24
  1.8368e+05   2.50e-24
  1.8794e+05   2.37e-24
  1.9230e+05   2.25e-24
  1.9676e+05   2.14e-24
  2.0132e+05   2.03e-24
  2.0600e+05   1.93e-24
  2.1078e+05   1.83e-24
  2.1567e+05   1.73e-24
  2.2067e+05   1.64e-24
  2.2579e+05   1.56e-24
  2.3103e+05   1.48e-24
  2.3639e+05   1.40e-24
  2.4187e+05   1.32e-24
  2.4748e+05   1.25e-24
  2.5323e+05   1.18e-24
  2.5910e+05   1.12e-24
  2.6511e+05   1.06e-24
  2.7126e+05   9.95e-25
  2.7756e+05   9.40e-25
  2.8400e+05   8.87e-25
  2.9059e+05   8.36e-25
  2.9733e+05   7.87e-25
  3.0423e+05   7.40e-25
  3.1129e+05   6.97e-25
  3.1851e+05   6.57e-25
  3.2590e+05   6.17e-25
  3.3346e+05   5.80e-25
  3.4120e+05   5.43e-25
  3.4911e+05   5.11e-25
  3.5721e+05   4.80e-25
  3.6550e+05   4.50e-25
  3.7398e+05   4.21e-25
  3.8266e+05   3.93e-25
  3.9154e+05   3.69e-25
  4.0062e+05   3.46e-25
  4.0991e+05   3.23e-25
  4.1943e+05   3.02e-25
  4.2916e+05   2.81e-25
  4.3911e+05   2.63e-25
  4.4930e+05   2.45e-25
  4.5973e+05   2.29e-25
  4.7039e+05   2.13e-25
  4.8131e+05   1.98e-25
  4.9247e+05   1.85e-25
  5.0390e+05   1.72e-25
  5.1559e+05   1.60e-25
  5.2755e+05   1.48e-25
  5.3979e+05   1.37e-25
  5.5232e+05   1.28e-25
  5.6513e+05   1.19e-25
  5.7824e+05   1.10e-25
  5.9166e+05   1.02e-25
  6.0539e+05   9.39e-26
  6.1943e+05   8.71e-26
  6.3381e+05   8.07e-26
  6.4851e+05   7.46e-26
  6.6356e+05   6.88e-26
  6.7895e+05   6.33e-26
  6.9471e+05   5.87e-26
  7.1082e+05   5.43e-26
  7.2732e+05   5.01e-26
  7.4419e+05   4.61e-26
  7.6146e+05   4.24e-26
  7.7912e+05   3.92e-26
  7.9720e+05   3.62e-26
  8.1570e+05   3.34e-26
  8.3462e+05   3.07e-26
  8.5399e+05   2.82e-26
  8.7380e+05   2.61e-26
  8.9407e+05   2.41e-26
  9.1482e+05   2.22e-26
  9.3604e+05   2.04e-26
  9.5776e+05   1.87e-26
  9.7998e+05   1.73e-26
  1.0027e+06   1.60e-26
  1.0260e+06   1.48e-26
  1.0498e+06   1.36e-26
  1.0741e+06   1.25e-26
  1.0991e+06   1.16e-26
  1.1246e+06   1.08e-26
  1.1507e+06   1.00e-26
  1.1774e+06   9.29e-27
  1.2047e+06   8.59e-27
  1.2326e+06   8.02e-27
  1.2612e+06   7.50e-27
  1.2905e+06   7.01e-27
  1.3204e+06   6.55e-27
  1.3511e+06   6.10e-27
  1.3824e+06   5.75e-27
  1.4145e+06   5.43e-27
  1.4473e+06   5.13e-27
  1.4809e+06   4.84e-27
  1.5152e+06   4.57e-27
  1.5504e+06   4.35e-27
  1.5864e+06   4.16e-27
  1.6232e+06   3.97e-27
  1.6608e+06   3.80e-27
  1.6994e+06   3.63e-27
  1.7388e+06   3.52e-27
  1.7791e+06   3.43e-27
  1.8204e+06   3.34e-27
  1.8626e+06   3.26e-27
  1.9059e+06   3.18e-27
  1.9501e+06   3.15e-27
  1.9953e+06   3.14e-27
  2.0416e+06   3.13e-27
  2.0890e+06   3.12e-27
  2.1375e+06   3.11e-27
  2.1870e+06   3.18e-27
  2.2378e+06   3.29e-27
  2.2897e+06   3.39e-27
  2.3428e+06   3.49e-27
  2.3972e+06   3.57e-27
  2.4528e+06   3.73e-27
  2.5097e+06   3.91e-27
  2.5680e+06   4.08e-27
  2.6275e+06   4.24e-27
  2.6885e+06   4.38e-27
  2.7509e+06   3.78e-27
  2.8147e+06   2.85e-27
  2.8800e+06   1.97e-27
