#  E [GeV]   # per interaction  [GeV^{-1}]
  3.0000e+01   7.07e-01
  3.1232e+01   6.76e-01
  3.2514e+01   6.46e-01
  3.3849e+01   6.17e-01
  3.5238e+01   5.90e-01
  3.6685e+01   5.64e-01
  3.8191e+01   5.39e-01
  3.9759e+01   5.15e-01
  4.1391e+01   4.92e-01
  4.3090e+01   4.70e-01
  4.4859e+01   4.49e-01
  4.6701e+01   4.29e-01
  4.8618e+01   4.09e-01
  5.0614e+01   3.91e-01
  5.2692e+01   3.73e-01
  5.4855e+01   3.56e-01
  5.7107e+01   3.40e-01
  5.9451e+01   3.25e-01
  6.1892e+01   3.10e-01
  6.4433e+01   2.96e-01
  6.7078e+01   2.82e-01
  6.9832e+01   2.70e-01
  7.2699e+01   2.57e-01
  7.5683e+01   2.45e-01
  7.8790e+01   2.34e-01
  8.2025e+01   2.23e-01
  8.5392e+01   2.13e-01
  8.8898e+01   2.03e-01
  9.2547e+01   1.94e-01
  9.6347e+01   1.85e-01
  1.0030e+02   1.76e-01
  1.0442e+02   1.68e-01
  1.0871e+02   1.60e-01
  1.1317e+02   1.52e-01
  1.1782e+02   1.45e-01
  1.2265e+02   1.38e-01
  1.2769e+02   1.32e-01
  1.3293e+02   1.25e-01
  1.3839e+02   1.19e-01
  1.4407e+02   1.13e-01
  1.4998e+02   1.08e-01
  1.5614e+02   1.03e-01
  1.6255e+02   9.76e-02
  1.6922e+02   9.28e-02
  1.7617e+02   8.82e-02
  1.8340e+02   8.38e-02
  1.9093e+02   7.96e-02
  1.9877e+02   7.56e-02
  2.0693e+02   7.17e-02
  2.1543e+02   6.81e-02
  2.2427e+02   6.46e-02
  2.3348e+02   6.13e-02
  2.4306e+02   5.81e-02
  2.5304e+02   5.51e-02
  2.6343e+02   5.22e-02
  2.7424e+02   4.94e-02
  2.8550e+02   4.68e-02
  2.9722e+02   4.42e-02
  3.0942e+02   4.18e-02
  3.2213e+02   3.95e-02
  3.3535e+02   3.73e-02
  3.4912e+02   3.52e-02
  3.6345e+02   3.32e-02
  3.7837e+02   3.14e-02
  3.9390e+02   2.96e-02
  4.1008e+02   2.78e-02
  4.2691e+02   2.62e-02
  4.4444e+02   2.47e-02
  4.6268e+02   2.32e-02
  4.8168e+02   2.18e-02
  5.0145e+02   2.05e-02
  5.2204e+02   1.92e-02
  5.4347e+02   1.81e-02
  5.6578e+02   1.69e-02
  5.8901e+02   1.59e-02
  6.1319e+02   1.49e-02
  6.3836e+02   1.39e-02
  6.6457e+02   1.30e-02
  6.9185e+02   1.22e-02
  7.2025e+02   1.14e-02
  7.4982e+02   1.06e-02
  7.8061e+02   9.91e-03
  8.1265e+02   9.25e-03
  8.4601e+02   8.63e-03
  8.8075e+02   8.05e-03
  9.1690e+02   7.50e-03
  9.5455e+02   6.99e-03
  9.9373e+02   6.51e-03
  1.0345e+03   6.06e-03
  1.0770e+03   5.64e-03
  1.1212e+03   5.25e-03
  1.1672e+03   4.88e-03
  1.2152e+03   4.54e-03
  1.2650e+03   4.22e-03
  1.3170e+03   3.92e-03
  1.3711e+03   3.64e-03
  1.4273e+03   3.38e-03
  1.4859e+03   3.14e-03
  1.5469e+03   2.91e-03
  1.6104e+03   2.71e-03
  1.6766e+03   2.51e-03
  1.7454e+03   2.33e-03
  1.8170e+03   2.16e-03
  1.8916e+03   2.00e-03
  1.9693e+03   1.85e-03
  2.0501e+03   1.71e-03
  2.1343e+03   1.59e-03
  2.2219e+03   1.47e-03
  2.3131e+03   1.35e-03
  2.4081e+03   1.25e-03
  2.5070e+03   1.15e-03
  2.6099e+03   1.07e-03
  2.7170e+03   9.82e-04
  2.8286e+03   9.04e-04
  2.9447e+03   8.33e-04
  3.0656e+03   7.66e-04
  3.1914e+03   7.04e-04
  3.3225e+03   6.47e-04
  3.4589e+03   5.93e-04
  3.6008e+03   5.44e-04
  3.7487e+03   4.98e-04
  3.9026e+03   4.55e-04
  4.0628e+03   4.17e-04
  4.2296e+03   3.80e-04
  4.4032e+03   3.46e-04
  4.5840e+03   3.16e-04
  4.7722e+03   2.87e-04
  4.9681e+03   2.60e-04
  5.1720e+03   2.36e-04
  5.3844e+03   2.14e-04
  5.6054e+03   1.93e-04
  5.8355e+03   1.75e-04
  6.0751e+03   1.57e-04
  6.3245e+03   1.42e-04
  6.5841e+03   1.27e-04
  6.8544e+03   1.14e-04
  7.1358e+03   1.02e-04
  7.4288e+03   9.09e-05
  7.7338e+03   8.08e-05
  8.0513e+03   7.19e-05
  8.3818e+03   6.37e-05
  8.7259e+03   5.61e-05
  9.0841e+03   4.95e-05
  9.4571e+03   4.34e-05
  9.8453e+03   3.78e-05
  1.0249e+04   3.30e-05
  1.0670e+04   2.86e-05
  1.1108e+04   2.47e-05
  1.1564e+04   2.12e-05
  1.2039e+04   1.81e-05
  1.2533e+04   1.54e-05
  1.3048e+04   1.30e-05
  1.3584e+04   1.09e-05
  1.4141e+04   9.05e-06
  1.4722e+04   7.47e-06
  1.5326e+04   6.08e-06
  1.5955e+04   4.91e-06
  1.6610e+04   3.92e-06
  1.7292e+04   3.07e-06
  1.8002e+04   2.38e-06
  1.8741e+04   1.80e-06
  1.9511e+04   1.33e-06
  2.0312e+04   9.73e-07
  2.1145e+04   6.86e-07
  2.2013e+04   4.66e-07
  2.2917e+04   3.08e-07
  2.3858e+04   1.93e-07
  2.4837e+04   1.15e-07
  2.5857e+04   6.45e-08
  2.6919e+04   3.34e-08
  2.8024e+04   1.58e-08
  2.9174e+04   6.76e-09
  3.0372e+04   2.51e-09
  3.1619e+04   7.96e-10
  3.2917e+04   2.07e-10
  3.4268e+04   4.19e-11
  3.5675e+04   6.28e-12
  3.7140e+04   6.40e-13
  3.8664e+04   3.98e-14
  4.0252e+04   1.34e-15
  4.1904e+04   2.02e-17
  4.3624e+04   1.08e-19
  4.5415e+04   1.51e-22
  4.7280e+04   3.51e-26
  4.9221e+04   7.53e-31
  5.1241e+04   6.65e-37
  5.3345e+04   7.46e-45
  5.5535e+04   1.48e-46
  5.7815e+04   1.48e-46
  6.0188e+04   1.48e-46
  6.2659e+04   1.50e-46
  6.5232e+04   1.56e-46
  6.7910e+04   1.61e-46
  7.0698e+04   1.75e-46
  7.3600e+04   1.96e-46
  7.6621e+04   2.15e-46
  7.9767e+04   2.84e-46
  8.3042e+04   3.75e-46
  8.6451e+04   4.59e-46
  9.0000e+04   6.39e-46
