#  E [MeV]   Flux [# cm^{-2} s^{-1}  MeV^{-1}]
  3.0000e+04   2.61e-25
  3.1141e+04   2.49e-25
  3.2326e+04   2.38e-25
  3.3556e+04   2.27e-25
  3.4832e+04   2.17e-25
  3.6157e+04   2.07e-25
  3.7533e+04   1.98e-25
  3.8961e+04   1.89e-25
  4.0443e+04   1.80e-25
  4.1982e+04   1.72e-25
  4.3579e+04   1.64e-25
  4.5237e+04   1.56e-25
  4.6958e+04   1.49e-25
  4.8744e+04   1.42e-25
  5.0598e+04   1.36e-25
  5.2523e+04   1.29e-25
  5.4521e+04   1.23e-25
  5.6596e+04   1.17e-25
  5.8749e+04   1.12e-25
  6.0984e+04   1.06e-25
  6.3304e+04   1.01e-25
  6.5712e+04   9.66e-26
  6.8212e+04   9.20e-26
  7.0807e+04   8.76e-26
  7.3500e+04   8.33e-26
  7.6297e+04   7.93e-26
  7.9199e+04   7.55e-26
  8.2212e+04   7.18e-26
  8.5340e+04   6.83e-26
  8.8586e+04   6.49e-26
  9.1956e+04   6.17e-26
  9.5455e+04   5.87e-26
  9.9086e+04   5.58e-26
  1.0286e+05   5.30e-26
  1.0677e+05   5.04e-26
  1.1083e+05   4.78e-26
  1.1505e+05   4.54e-26
  1.1942e+05   4.31e-26
  1.2397e+05   4.10e-26
  1.2868e+05   3.89e-26
  1.3358e+05   3.69e-26
  1.3866e+05   3.50e-26
  1.4394e+05   3.32e-26
  1.4941e+05   3.15e-26
  1.5509e+05   2.98e-26
  1.6100e+05   2.83e-26
  1.6712e+05   2.68e-26
  1.7348e+05   2.54e-26
  1.8008e+05   2.40e-26
  1.8693e+05   2.28e-26
  1.9404e+05   2.15e-26
  2.0142e+05   2.04e-26
  2.0908e+05   1.93e-26
  2.1704e+05   1.82e-26
  2.2529e+05   1.72e-26
  2.3387e+05   1.62e-26
  2.4276e+05   1.53e-26
  2.5200e+05   1.45e-26
  2.6158e+05   1.36e-26
  2.7154e+05   1.29e-26
  2.8187e+05   1.21e-26
  2.9259e+05   1.14e-26
  3.0372e+05   1.07e-26
  3.1527e+05   1.01e-26
  3.2727e+05   9.50e-27
  3.3972e+05   8.92e-27
  3.5264e+05   8.37e-27
  3.6606e+05   7.85e-27
  3.7998e+05   7.36e-27
  3.9444e+05   6.89e-27
  4.0945e+05   6.45e-27
  4.2502e+05   6.03e-27
  4.4119e+05   5.64e-27
  4.5798e+05   5.26e-27
  4.7540e+05   4.91e-27
  4.9348e+05   4.58e-27
  5.1226e+05   4.26e-27
  5.3175e+05   3.97e-27
  5.5198e+05   3.69e-27
  5.7297e+05   3.43e-27
  5.9477e+05   3.18e-27
  6.1740e+05   2.95e-27
  6.4089e+05   2.73e-27
  6.6527e+05   2.53e-27
  6.9058e+05   2.34e-27
  7.1685e+05   2.16e-27
  7.4412e+05   2.00e-27
  7.7243e+05   1.85e-27
  8.0181e+05   1.71e-27
  8.3232e+05   1.58e-27
  8.6398e+05   1.46e-27
  8.9685e+05   1.35e-27
  9.3097e+05   1.24e-27
  9.6638e+05   1.15e-27
  1.0031e+06   1.06e-27
  1.0413e+06   9.78e-28
  1.0809e+06   9.02e-28
  1.1220e+06   8.32e-28
  1.1647e+06   7.67e-28
  1.2090e+06   7.07e-28
  1.2550e+06   6.52e-28
  1.3028e+06   6.00e-28
  1.3523e+06   5.52e-28
  1.4038e+06   5.09e-28
  1.4572e+06   4.68e-28
  1.5126e+06   4.30e-28
  1.5702e+06   3.96e-28
  1.6299e+06   3.64e-28
  1.6919e+06   3.34e-28
  1.7563e+06   3.07e-28
  1.8231e+06   2.82e-28
  1.8925e+06   2.58e-28
  1.9645e+06   2.37e-28
  2.0392e+06   2.17e-28
  2.1168e+06   1.99e-28
  2.1973e+06   1.82e-28
  2.2809e+06   1.66e-28
  2.3677e+06   1.52e-28
  2.4577e+06   1.39e-28
  2.5512e+06   1.26e-28
  2.6483e+06   1.15e-28
  2.7490e+06   1.04e-28
  2.8536e+06   9.48e-29
  2.9622e+06   8.59e-29
  3.0749e+06   7.77e-29
  3.1918e+06   7.03e-29
  3.3133e+06   6.34e-29
  3.4393e+06   5.71e-29
  3.5702e+06   5.14e-29
  3.7060e+06   4.61e-29
  3.8470e+06   4.12e-29
  3.9933e+06   3.69e-29
  4.1452e+06   3.29e-29
  4.3029e+06   2.93e-29
  4.4666e+06   2.61e-29
  4.6366e+06   2.31e-29
  4.8129e+06   2.03e-29
  4.9960e+06   1.80e-29
  5.1861e+06   1.58e-29
  5.3834e+06   1.37e-29
  5.5882e+06   1.20e-29
  5.8008e+06   1.05e-29
  6.0215e+06   9.04e-30
  6.2506e+06   7.84e-30
  6.4883e+06   6.75e-30
  6.7352e+06   5.76e-30
  6.9914e+06   4.94e-30
  7.2574e+06   4.21e-30
  7.5335e+06   3.54e-30
  7.8201e+06   2.99e-30
  8.1176e+06   2.51e-30
  8.4264e+06   2.08e-30
  8.7470e+06   1.73e-30
  9.0797e+06   1.43e-30
  9.4251e+06   1.17e-30
  9.7837e+06   9.49e-31
  1.0156e+07   7.68e-31
  1.0542e+07   6.11e-31
  1.0943e+07   4.84e-31
  1.1360e+07   3.83e-31
  1.1792e+07   2.96e-31
  1.2240e+07   2.28e-31
  1.2706e+07   1.74e-31
  1.3189e+07   1.30e-31
  1.3691e+07   9.59e-32
  1.4212e+07   7.04e-32
  1.4753e+07   5.02e-32
  1.5314e+07   3.50e-32
  1.5897e+07   2.43e-32
  1.6501e+07   1.63e-32
  1.7129e+07   1.05e-32
  1.7781e+07   6.78e-33
  1.8457e+07   4.16e-33
  1.9159e+07   2.42e-33
  1.9888e+07   1.39e-33
  2.0645e+07   7.49e-34
  2.1430e+07   3.75e-34
  2.2245e+07   1.82e-34
  2.3092e+07   8.05e-35
  2.3970e+07   3.21e-35
  2.4882e+07   1.19e-35
  2.5829e+07   3.87e-36
  2.6811e+07   1.08e-36
  2.7831e+07   2.57e-37
  2.8890e+07   4.98e-38
  2.9989e+07   7.45e-39
  3.1130e+07   8.44e-40
  3.2314e+07   6.68e-41
  3.3544e+07   3.38e-42
  3.4820e+07   1.01e-43
  3.6144e+07   1.55e-45
  3.7519e+07   1.04e-47
  3.8947e+07   2.51e-50
  4.0428e+07   1.66e-53
  4.1966e+07   2.12e-57
  4.3563e+07   3.34e-62
  4.5220e+07   3.56e-68
  4.6941e+07   1.35e-72
  4.8726e+07   1.19e-72
  5.0580e+07   1.05e-72
