#  E [MeV]   Flux [# cm^{-2} s^{-1}  MeV^{-1}]
  3.0000e+04   2.12e-24
  3.0962e+04   2.04e-24
  3.1955e+04   1.96e-24
  3.2979e+04   1.88e-24
  3.4037e+04   1.80e-24
  3.5128e+04   1.73e-24
  3.6254e+04   1.66e-24
  3.7417e+04   1.59e-24
  3.8616e+04   1.53e-24
  3.9855e+04   1.47e-24
  4.1132e+04   1.40e-24
  4.2451e+04   1.35e-24
  4.3812e+04   1.29e-24
  4.5217e+04   1.24e-24
  4.6667e+04   1.19e-24
  4.8163e+04   1.14e-24
  4.9707e+04   1.09e-24
  5.1301e+04   1.04e-24
  5.2946e+04   9.99e-25
  5.4644e+04   9.56e-25
  5.6396e+04   9.15e-25
  5.8204e+04   8.76e-25
  6.0070e+04   8.38e-25
  6.1996e+04   8.02e-25
  6.3984e+04   7.67e-25
  6.6035e+04   7.34e-25
  6.8153e+04   7.01e-25
  7.0338e+04   6.71e-25
  7.2593e+04   6.41e-25
  7.4921e+04   6.12e-25
  7.7323e+04   5.85e-25
  7.9802e+04   5.59e-25
  8.2361e+04   5.34e-25
  8.5002e+04   5.09e-25
  8.7727e+04   4.86e-25
  9.0540e+04   4.64e-25
  9.3443e+04   4.42e-25
  9.6439e+04   4.22e-25
  9.9531e+04   4.02e-25
  1.0272e+05   3.83e-25
  1.0602e+05   3.65e-25
  1.0942e+05   3.48e-25
  1.1292e+05   3.31e-25
  1.1654e+05   3.15e-25
  1.2028e+05   3.00e-25
  1.2414e+05   2.85e-25
  1.2812e+05   2.71e-25
  1.3223e+05   2.57e-25
  1.3646e+05   2.44e-25
  1.4084e+05   2.32e-25
  1.4536e+05   2.20e-25
  1.5002e+05   2.09e-25
  1.5483e+05   1.98e-25
  1.5979e+05   1.88e-25
  1.6491e+05   1.78e-25
  1.7020e+05   1.69e-25
  1.7566e+05   1.60e-25
  1.8129e+05   1.52e-25
  1.8710e+05   1.43e-25
  1.9310e+05   1.36e-25
  1.9929e+05   1.28e-25
  2.0568e+05   1.21e-25
  2.1228e+05   1.15e-25
  2.1909e+05   1.08e-25
  2.2611e+05   1.02e-25
  2.3336e+05   9.64e-26
  2.4084e+05   9.09e-26
  2.4856e+05   8.57e-26
  2.5653e+05   8.08e-26
  2.6476e+05   7.60e-26
  2.7325e+05   7.15e-26
  2.8201e+05   6.73e-26
  2.9105e+05   6.33e-26
  3.0038e+05   5.94e-26
  3.1002e+05   5.58e-26
  3.1996e+05   5.24e-26
  3.3021e+05   4.91e-26
  3.4080e+05   4.60e-26
  3.5173e+05   4.31e-26
  3.6301e+05   4.04e-26
  3.7465e+05   3.77e-26
  3.8666e+05   3.53e-26
  3.9905e+05   3.29e-26
  4.1185e+05   3.07e-26
  4.2506e+05   2.86e-26
  4.3868e+05   2.67e-26
  4.5275e+05   2.48e-26
  4.6727e+05   2.31e-26
  4.8225e+05   2.15e-26
  4.9771e+05   1.99e-26
  5.1367e+05   1.85e-26
  5.3014e+05   1.72e-26
  5.4714e+05   1.59e-26
  5.6468e+05   1.47e-26
  5.8278e+05   1.36e-26
  6.0147e+05   1.26e-26
  6.2075e+05   1.16e-26
  6.4066e+05   1.08e-26
  6.6120e+05   9.93e-27
  6.8240e+05   9.14e-27
  7.0428e+05   8.43e-27
  7.2686e+05   7.77e-27
  7.5017e+05   7.14e-27
  7.7422e+05   6.56e-27
  7.9904e+05   6.03e-27
  8.2466e+05   5.53e-27
  8.5110e+05   5.07e-27
  8.7839e+05   4.64e-27
  9.0656e+05   4.26e-27
  9.3562e+05   3.89e-27
  9.6562e+05   3.55e-27
  9.9658e+05   3.25e-27
  1.0285e+06   2.97e-27
  1.0615e+06   2.71e-27
  1.0956e+06   2.47e-27
  1.1307e+06   2.26e-27
  1.1669e+06   2.05e-27
  1.2043e+06   1.87e-27
  1.2430e+06   1.70e-27
  1.2828e+06   1.55e-27
  1.3239e+06   1.40e-27
  1.3664e+06   1.27e-27
  1.4102e+06   1.16e-27
  1.4554e+06   1.05e-27
  1.5021e+06   9.50e-28
  1.5502e+06   8.59e-28
  1.6000e+06   7.79e-28
  1.6513e+06   7.04e-28
  1.7042e+06   6.34e-28
  1.7588e+06   5.73e-28
  1.8152e+06   5.18e-28
  1.8734e+06   4.66e-28
  1.9335e+06   4.18e-28
  1.9955e+06   3.78e-28
  2.0595e+06   3.40e-28
  2.1255e+06   3.05e-28
  2.1937e+06   2.73e-28
  2.2640e+06   2.46e-28
  2.3366e+06   2.20e-28
  2.4115e+06   1.96e-28
  2.4888e+06   1.76e-28
  2.5686e+06   1.58e-28
  2.6510e+06   1.41e-28
  2.7360e+06   1.25e-28
  2.8237e+06   1.12e-28
  2.9142e+06   1.00e-28
  3.0077e+06   8.86e-29
  3.1041e+06   7.87e-29
  3.2036e+06   7.02e-29
  3.3064e+06   6.23e-29
  3.4124e+06   5.48e-29
  3.5218e+06   4.87e-29
  3.6347e+06   4.33e-29
  3.7512e+06   3.82e-29
  3.8715e+06   3.35e-29
  3.9957e+06   2.98e-29
  4.1238e+06   2.64e-29
  4.2560e+06   2.31e-29
  4.3924e+06   2.04e-29
  4.5333e+06   1.81e-29
  4.6786e+06   1.59e-29
  4.8286e+06   1.39e-29
  4.9835e+06   1.23e-29
  5.1433e+06   1.09e-29
  5.3082e+06   9.54e-30
  5.4784e+06   8.34e-30
  5.6540e+06   7.40e-30
  5.8353e+06   6.53e-30
  6.0224e+06   5.71e-30
  6.2155e+06   5.04e-30
  6.4148e+06   4.47e-30
  6.6205e+06   3.95e-30
  6.8327e+06   3.46e-30
  7.0518e+06   3.09e-30
  7.2779e+06   2.74e-30
  7.5113e+06   2.42e-30
  7.7521e+06   2.14e-30
  8.0007e+06   1.91e-30
  8.2572e+06   1.69e-30
  8.5219e+06   1.50e-30
  8.7952e+06   1.33e-30
  9.0772e+06   1.18e-30
  9.3682e+06   1.04e-30
  9.6686e+06   9.17e-31
  9.9786e+06   8.14e-31
  1.0299e+07   7.19e-31
  1.0629e+07   6.32e-31
  1.0970e+07   5.53e-31
  1.1321e+07   4.85e-31
  1.1684e+07   4.23e-31
  1.2059e+07   3.66e-31
  1.2446e+07   3.15e-31
  1.2845e+07   2.69e-31
  1.3256e+07   2.28e-31
  1.3681e+07   1.92e-31
  1.4120e+07   1.59e-31
  1.4573e+07   1.31e-31
  1.5040e+07   1.06e-31
  1.5522e+07   8.57e-32
  1.6020e+07   6.94e-32
