#  E [MeV]   Flux [# cm^{-2} s^{-1}  MeV^{-1}]
  3.0000e+04   1.86e-18
  3.0675e+04   1.80e-18
  3.1366e+04   1.74e-18
  3.2072e+04   1.68e-18
  3.2794e+04   1.62e-18
  3.3533e+04   1.56e-18
  3.4288e+04   1.51e-18
  3.5060e+04   1.46e-18
  3.5849e+04   1.41e-18
  3.6656e+04   1.36e-18
  3.7482e+04   1.31e-18
  3.8326e+04   1.26e-18
  3.9188e+04   1.22e-18
  4.0071e+04   1.17e-18
  4.0973e+04   1.13e-18
  4.1896e+04   1.09e-18
  4.2839e+04   1.05e-18
  4.3803e+04   1.01e-18
  4.4790e+04   9.77e-19
  4.5798e+04   9.42e-19
  4.6829e+04   9.08e-19
  4.7884e+04   8.75e-19
  4.8962e+04   8.43e-19
  5.0064e+04   8.13e-19
  5.1191e+04   7.83e-19
  5.2344e+04   7.54e-19
  5.3522e+04   7.27e-19
  5.4727e+04   7.00e-19
  5.5960e+04   6.74e-19
  5.7219e+04   6.49e-19
  5.8508e+04   6.24e-19
  5.9825e+04   6.01e-19
  6.1172e+04   5.78e-19
  6.2549e+04   5.56e-19
  6.3958e+04   5.34e-19
  6.5398e+04   5.14e-19
  6.6870e+04   4.93e-19
  6.8376e+04   4.74e-19
  6.9915e+04   4.55e-19
  7.1489e+04   4.37e-19
  7.3099e+04   4.20e-19
  7.4745e+04   4.03e-19
  7.6428e+04   3.86e-19
  7.8148e+04   3.71e-19
  7.9908e+04   3.55e-19
  8.1707e+04   3.41e-19
  8.3547e+04   3.27e-19
  8.5428e+04   3.13e-19
  8.7351e+04   3.00e-19
  8.9318e+04   2.87e-19
  9.1329e+04   2.75e-19
  9.3385e+04   2.63e-19
  9.5488e+04   2.52e-19
  9.7638e+04   2.41e-19
  9.9836e+04   2.30e-19
  1.0208e+05   2.20e-19
  1.0438e+05   2.10e-19
  1.0673e+05   2.01e-19
  1.0914e+05   1.92e-19
  1.1159e+05   1.83e-19
  1.1411e+05   1.75e-19
  1.1667e+05   1.67e-19
  1.1930e+05   1.59e-19
  1.2199e+05   1.52e-19
  1.2473e+05   1.45e-19
  1.2754e+05   1.38e-19
  1.3041e+05   1.31e-19
  1.3335e+05   1.25e-19
  1.3635e+05   1.19e-19
  1.3942e+05   1.13e-19
  1.4256e+05   1.07e-19
  1.4577e+05   1.02e-19
  1.4905e+05   9.68e-20
  1.5241e+05   9.19e-20
  1.5584e+05   8.71e-20
  1.5935e+05   8.27e-20
  1.6294e+05   7.85e-20
  1.6661e+05   7.44e-20
  1.7036e+05   7.04e-20
  1.7419e+05   6.66e-20
  1.7812e+05   6.31e-20
  1.8213e+05   5.97e-20
  1.8623e+05   5.65e-20
  1.9042e+05   5.33e-20
  1.9471e+05   5.03e-20
  1.9909e+05   4.75e-20
  2.0357e+05   4.49e-20
  2.0816e+05   4.23e-20
  2.1284e+05   3.99e-20
  2.1763e+05   3.75e-20
  2.2253e+05   3.53e-20
  2.2755e+05   3.33e-20
  2.3267e+05   3.13e-20
  2.3791e+05   2.94e-20
  2.4326e+05   2.76e-20
  2.4874e+05   2.59e-20
  2.5434e+05   2.43e-20
  2.6007e+05   2.28e-20
  2.6592e+05   2.14e-20
  2.7191e+05   2.00e-20
  2.7803e+05   1.86e-20
  2.8429e+05   1.75e-20
  2.9069e+05   1.63e-20
  2.9724e+05   1.52e-20
  3.0393e+05   1.42e-20
  3.1077e+05   1.32e-20
  3.1777e+05   1.23e-20
  3.2493e+05   1.15e-20
  3.3224e+05   1.07e-20
  3.3972e+05   9.95e-21
  3.4737e+05   9.21e-21
  3.5519e+05   8.57e-21
  3.6319e+05   7.98e-21
  3.7137e+05   7.40e-21
  3.7973e+05   6.85e-21
  3.8828e+05   6.32e-21
  3.9702e+05   5.86e-21
  4.0596e+05   5.43e-21
  4.1510e+05   5.03e-21
  4.2444e+05   4.64e-21
  4.3400e+05   4.26e-21
  4.4377e+05   3.93e-21
  4.5376e+05   3.64e-21
  4.6398e+05   3.36e-21
  4.7443e+05   3.09e-21
  4.8511e+05   2.83e-21
  4.9603e+05   2.59e-21
  5.0720e+05   2.39e-21
  5.1862e+05   2.20e-21
  5.3030e+05   2.01e-21
  5.4224e+05   1.84e-21
  5.5444e+05   1.67e-21
  5.6693e+05   1.54e-21
  5.7969e+05   1.41e-21
  5.9274e+05   1.29e-21
  6.0609e+05   1.17e-21
  6.1974e+05   1.06e-21
  6.3369e+05   9.71e-22
  6.4796e+05   8.88e-22
  6.6255e+05   8.08e-22
  6.7746e+05   7.32e-22
  6.9272e+05   6.59e-22
  7.0831e+05   6.02e-22
  7.2426e+05   5.49e-22
  7.4057e+05   4.99e-22
  7.5724e+05   4.51e-22
  7.7429e+05   4.04e-22
  7.9172e+05   3.67e-22
  8.0955e+05   3.34e-22
  8.2778e+05   3.03e-22
  8.4641e+05   2.73e-22
  8.6547e+05   2.44e-22
  8.8496e+05   2.20e-22
  9.0488e+05   2.00e-22
  9.2526e+05   1.81e-22
  9.4609e+05   1.63e-22
  9.6739e+05   1.45e-22
  9.8917e+05   1.30e-22
  1.0114e+06   1.18e-22
  1.0342e+06   1.07e-22
  1.0575e+06   9.57e-23
  1.0813e+06   8.52e-23
  1.1057e+06   7.56e-23
  1.1305e+06   6.87e-23
  1.1560e+06   6.21e-23
  1.1820e+06   5.58e-23
  1.2086e+06   4.97e-23
  1.2359e+06   4.39e-23
  1.2637e+06   4.00e-23
  1.2921e+06   3.63e-23
  1.3212e+06   3.27e-23
  1.3510e+06   2.93e-23
  1.3814e+06   2.60e-23
  1.4125e+06   2.36e-23
  1.4443e+06   2.15e-23
  1.4768e+06   1.95e-23
  1.5101e+06   1.76e-23
  1.5441e+06   1.57e-23
  1.5788e+06   1.43e-23
  1.6144e+06   1.32e-23
  1.6507e+06   1.21e-23
  1.6879e+06   1.11e-23
  1.7259e+06   1.01e-23
  1.7648e+06   9.24e-24
  1.8045e+06   8.58e-24
  1.8451e+06   7.96e-24
  1.8867e+06   7.35e-24
  1.9291e+06   6.77e-24
  1.9726e+06   6.26e-24
  2.0170e+06   5.85e-24
  2.0624e+06   5.45e-24
  2.1088e+06   5.07e-24
  2.1563e+06   4.71e-24
  2.2049e+06   4.36e-24
  2.2545e+06   4.06e-24
  2.3053e+06   3.77e-24
  2.3572e+06   3.50e-24
  2.4102e+06   3.23e-24
  2.4645e+06   2.97e-24
  2.5200e+06   2.80e-24
