#  E [GeV]   # per interaction  [GeV^{-1}]
  3.0000e+01   7.15e-01
  3.1232e+01   6.83e-01
  3.2514e+01   6.53e-01
  3.3849e+01   6.24e-01
  3.5238e+01   5.97e-01
  3.6685e+01   5.70e-01
  3.8191e+01   5.45e-01
  3.9759e+01   5.21e-01
  4.1391e+01   4.98e-01
  4.3090e+01   4.75e-01
  4.4859e+01   4.54e-01
  4.6701e+01   4.34e-01
  4.8618e+01   4.14e-01
  5.0614e+01   3.96e-01
  5.2692e+01   3.78e-01
  5.4855e+01   3.61e-01
  5.7107e+01   3.44e-01
  5.9451e+01   3.29e-01
  6.1892e+01   3.14e-01
  6.4433e+01   3.00e-01
  6.7078e+01   2.86e-01
  6.9832e+01   2.73e-01
  7.2699e+01   2.60e-01
  7.5683e+01   2.48e-01
  7.8790e+01   2.37e-01
  8.2025e+01   2.26e-01
  8.5392e+01   2.16e-01
  8.8898e+01   2.06e-01
  9.2547e+01   1.96e-01
  9.6347e+01   1.87e-01
  1.0030e+02   1.78e-01
  1.0442e+02   1.70e-01
  1.0871e+02   1.62e-01
  1.1317e+02   1.54e-01
  1.1782e+02   1.47e-01
  1.2265e+02   1.40e-01
  1.2769e+02   1.34e-01
  1.3293e+02   1.27e-01
  1.3839e+02   1.21e-01
  1.4407e+02   1.15e-01
  1.4998e+02   1.10e-01
  1.5614e+02   1.04e-01
  1.6255e+02   9.94e-02
  1.6922e+02   9.45e-02
  1.7617e+02   8.99e-02
  1.8340e+02   8.54e-02
  1.9093e+02   8.12e-02
  1.9877e+02   7.72e-02
  2.0693e+02   7.33e-02
  2.1543e+02   6.96e-02
  2.2427e+02   6.61e-02
  2.3348e+02   6.28e-02
  2.4306e+02   5.96e-02
  2.5304e+02   5.66e-02
  2.6343e+02   5.37e-02
  2.7424e+02   5.09e-02
  2.8550e+02   4.82e-02
  2.9722e+02   4.57e-02
  3.0942e+02   4.33e-02
  3.2213e+02   4.09e-02
  3.3535e+02   3.87e-02
  3.4912e+02   3.66e-02
  3.6345e+02   3.46e-02
  3.7837e+02   3.27e-02
  3.9390e+02   3.09e-02
  4.1008e+02   2.92e-02
  4.2691e+02   2.76e-02
  4.4444e+02   2.60e-02
  4.6268e+02   2.45e-02
  4.8168e+02   2.31e-02
  5.0145e+02   2.18e-02
  5.2204e+02   2.05e-02
  5.4347e+02   1.93e-02
  5.6578e+02   1.82e-02
  5.8901e+02   1.71e-02
  6.1319e+02   1.60e-02
  6.3836e+02   1.51e-02
  6.6457e+02   1.41e-02
  6.9185e+02   1.33e-02
  7.2025e+02   1.24e-02
  7.4982e+02   1.17e-02
  7.8061e+02   1.09e-02
  8.1265e+02   1.02e-02
  8.4601e+02   9.59e-03
  8.8075e+02   8.97e-03
  9.1690e+02   8.39e-03
  9.5455e+02   7.84e-03
  9.9373e+02   7.33e-03
  1.0345e+03   6.85e-03
  1.0770e+03   6.40e-03
  1.1212e+03   5.97e-03
  1.1672e+03   5.57e-03
  1.2152e+03   5.19e-03
  1.2650e+03   4.84e-03
  1.3170e+03   4.51e-03
  1.3711e+03   4.20e-03
  1.4273e+03   3.91e-03
  1.4859e+03   3.64e-03
  1.5469e+03   3.39e-03
  1.6104e+03   3.15e-03
  1.6766e+03   2.93e-03
  1.7454e+03   2.72e-03
  1.8170e+03   2.53e-03
  1.8916e+03   2.35e-03
  1.9693e+03   2.18e-03
  2.0501e+03   2.02e-03
  2.1343e+03   1.88e-03
  2.2219e+03   1.74e-03
  2.3131e+03   1.61e-03
  2.4081e+03   1.49e-03
  2.5070e+03   1.38e-03
  2.6099e+03   1.27e-03
  2.7170e+03   1.17e-03
  2.8286e+03   1.08e-03
  2.9447e+03   1.00e-03
  3.0656e+03   9.22e-04
  3.1914e+03   8.49e-04
  3.3225e+03   7.82e-04
  3.4589e+03   7.19e-04
  3.6008e+03   6.61e-04
  3.7487e+03   6.07e-04
  3.9026e+03   5.56e-04
  4.0628e+03   5.10e-04
  4.2296e+03   4.67e-04
  4.4032e+03   4.27e-04
  4.5840e+03   3.91e-04
  4.7722e+03   3.57e-04
  4.9681e+03   3.25e-04
  5.1720e+03   2.96e-04
  5.3844e+03   2.70e-04
  5.6054e+03   2.45e-04
  5.8355e+03   2.22e-04
  6.0751e+03   2.02e-04
  6.3245e+03   1.82e-04
  6.5841e+03   1.65e-04
  6.8544e+03   1.49e-04
  7.1358e+03   1.34e-04
  7.4288e+03   1.21e-04
  7.7338e+03   1.09e-04
  8.0513e+03   9.76e-05
  8.3818e+03   8.75e-05
  8.7259e+03   7.81e-05
  9.0841e+03   6.97e-05
  9.4571e+03   6.21e-05
  9.8453e+03   5.50e-05
  1.0249e+04   4.89e-05
  1.0670e+04   4.32e-05
  1.1108e+04   3.80e-05
  1.1564e+04   3.35e-05
  1.2039e+04   2.93e-05
  1.2533e+04   2.56e-05
  1.3048e+04   2.23e-05
  1.3584e+04   1.93e-05
  1.4141e+04   1.66e-05
  1.4722e+04   1.43e-05
  1.5326e+04   1.22e-05
  1.5955e+04   1.04e-05
  1.6610e+04   8.77e-06
  1.7292e+04   7.33e-06
  1.8002e+04   6.09e-06
  1.8741e+04   5.02e-06
  1.9511e+04   4.07e-06
  2.0312e+04   3.28e-06
  2.1145e+04   2.60e-06
  2.2013e+04   2.02e-06
  2.2917e+04   1.55e-06
  2.3858e+04   1.16e-06
  2.4837e+04   8.39e-07
  2.5857e+04   5.95e-07
  2.6919e+04   4.04e-07
  2.8024e+04   2.62e-07
  2.9174e+04   1.62e-07
  3.0372e+04   9.30e-08
  3.1619e+04   4.92e-08
  3.2917e+04   2.38e-08
  3.4268e+04   1.01e-08
  3.5675e+04   3.67e-09
  3.7140e+04   1.11e-09
  3.8664e+04   2.61e-10
  4.0252e+04   4.52e-11
  4.1904e+04   5.26e-12
  4.3624e+04   3.63e-13
  4.5415e+04   1.28e-14
  4.7280e+04   1.86e-16
  4.9221e+04   8.24e-19
  5.1241e+04   7.51e-22
  5.3345e+04   7.88e-26
  5.5535e+04   4.25e-31
  5.7815e+04   3.84e-38
  6.0188e+04   1.48e-46
  6.2659e+04   1.48e-46
  6.5232e+04   1.54e-46
  6.7910e+04   1.60e-46
  7.0698e+04   1.69e-46
  7.3600e+04   1.91e-46
  7.6621e+04   2.11e-46
  7.9767e+04   2.60e-46
  8.3042e+04   3.53e-46
  8.6451e+04   4.39e-46
  9.0000e+04   5.88e-46
