#  E [MeV]   Flux [# cm^{-2} s^{-1}  MeV^{-1}]
  3.0000e+04   4.26e-27
  3.1232e+04   4.09e-27
  3.2514e+04   3.93e-27
  3.3849e+04   3.78e-27
  3.5238e+04   3.63e-27
  3.6685e+04   3.49e-27
  3.8191e+04   3.35e-27
  3.9759e+04   3.22e-27
  4.1391e+04   3.09e-27
  4.3090e+04   2.97e-27
  4.4859e+04   2.85e-27
  4.6701e+04   2.73e-27
  4.8618e+04   2.62e-27
  5.0614e+04   2.51e-27
  5.2692e+04   2.41e-27
  5.4855e+04   2.31e-27
  5.7107e+04   2.21e-27
  5.9451e+04   2.12e-27
  6.1892e+04   2.03e-27
  6.4433e+04   1.95e-27
  6.7078e+04   1.86e-27
  6.9832e+04   1.78e-27
  7.2699e+04   1.71e-27
  7.5683e+04   1.63e-27
  7.8790e+04   1.56e-27
  8.2025e+04   1.49e-27
  8.5392e+04   1.43e-27
  8.8898e+04   1.37e-27
  9.2547e+04   1.31e-27
  9.6347e+04   1.25e-27
  1.0030e+05   1.19e-27
  1.0442e+05   1.14e-27
  1.0871e+05   1.09e-27
  1.1317e+05   1.04e-27
  1.1782e+05   9.88e-28
  1.2265e+05   9.42e-28
  1.2769e+05   8.99e-28
  1.3293e+05   8.56e-28
  1.3839e+05   8.16e-28
  1.4407e+05   7.77e-28
  1.4998e+05   7.40e-28
  1.5614e+05   7.05e-28
  1.6255e+05   6.70e-28
  1.6922e+05   6.38e-28
  1.7617e+05   6.07e-28
  1.8340e+05   5.77e-28
  1.9093e+05   5.48e-28
  1.9877e+05   5.21e-28
  2.0693e+05   4.94e-28
  2.1543e+05   4.69e-28
  2.2427e+05   4.46e-28
  2.3348e+05   4.23e-28
  2.4306e+05   4.01e-28
  2.5304e+05   3.80e-28
  2.6343e+05   3.60e-28
  2.7424e+05   3.41e-28
  2.8550e+05   3.23e-28
  2.9722e+05   3.06e-28
  3.0942e+05   2.89e-28
  3.2213e+05   2.74e-28
  3.3535e+05   2.59e-28
  3.4912e+05   2.45e-28
  3.6345e+05   2.31e-28
  3.7837e+05   2.18e-28
  3.9390e+05   2.06e-28
  4.1008e+05   1.95e-28
  4.2691e+05   1.84e-28
  4.4444e+05   1.73e-28
  4.6268e+05   1.63e-28
  4.8168e+05   1.54e-28
  5.0145e+05   1.45e-28
  5.2204e+05   1.37e-28
  5.4347e+05   1.29e-28
  5.6578e+05   1.21e-28
  5.8901e+05   1.14e-28
  6.1319e+05   1.07e-28
  6.3836e+05   1.01e-28
  6.6457e+05   9.44e-29
  6.9185e+05   8.87e-29
  7.2025e+05   8.33e-29
  7.4982e+05   7.82e-29
  7.8061e+05   7.34e-29
  8.1265e+05   6.89e-29
  8.4601e+05   6.47e-29
  8.8075e+05   6.06e-29
  9.1690e+05   5.69e-29
  9.5455e+05   5.33e-29
  9.9373e+05   5.00e-29
  1.0345e+06   4.69e-29
  1.0770e+06   4.39e-29
  1.1212e+06   4.11e-29
  1.1672e+06   3.85e-29
  1.2152e+06   3.61e-29
  1.2650e+06   3.38e-29
  1.3170e+06   3.17e-29
  1.3711e+06   2.96e-29
  1.4273e+06   2.78e-29
  1.4859e+06   2.60e-29
  1.5469e+06   2.43e-29
  1.6104e+06   2.28e-29
  1.6766e+06   2.13e-29
  1.7454e+06   2.00e-29
  1.8170e+06   1.87e-29
  1.8916e+06   1.75e-29
  1.9693e+06   1.64e-29
  2.0501e+06   1.53e-29
  2.1343e+06   1.44e-29
  2.2219e+06   1.34e-29
  2.3131e+06   1.26e-29
  2.4081e+06   1.18e-29
  2.5070e+06   1.10e-29
  2.6099e+06   1.03e-29
  2.7170e+06   9.66e-30
  2.8286e+06   9.04e-30
  2.9447e+06   8.47e-30
  3.0656e+06   7.93e-30
  3.1914e+06   7.43e-30
  3.3225e+06   6.96e-30
  3.4589e+06   6.52e-30
  3.6008e+06   6.11e-30
  3.7487e+06   5.73e-30
  3.9026e+06   5.37e-30
  4.0628e+06   5.03e-30
  4.2296e+06   4.72e-30
  4.4032e+06   4.42e-30
  4.5840e+06   4.14e-30
  4.7722e+06   3.89e-30
  4.9681e+06   3.64e-30
  5.1720e+06   3.42e-30
  5.3844e+06   3.21e-30
  5.6054e+06   3.01e-30
  5.8355e+06   2.82e-30
  6.0751e+06   2.65e-30
  6.3245e+06   2.49e-30
  6.5841e+06   2.33e-30
  6.8544e+06   2.19e-30
  7.1358e+06   2.05e-30
  7.4288e+06   1.93e-30
  7.7338e+06   1.81e-30
  8.0513e+06   1.70e-30
  8.3818e+06   1.59e-30
  8.7259e+06   1.49e-30
  9.0841e+06   1.40e-30
  9.4571e+06   1.31e-30
  9.8453e+06   1.23e-30
  1.0249e+07   1.15e-30
  1.0670e+07   1.07e-30
  1.1108e+07   1.00e-30
  1.1564e+07   9.37e-31
  1.2039e+07   8.73e-31
  1.2533e+07   8.13e-31
  1.3048e+07   7.55e-31
  1.3584e+07   7.00e-31
  1.4141e+07   6.47e-31
  1.4722e+07   5.98e-31
  1.5326e+07   5.50e-31
  1.5955e+07   5.04e-31
  1.6610e+07   4.60e-31
  1.7292e+07   4.18e-31
  1.8002e+07   3.78e-31
  1.8741e+07   3.40e-31
  1.9511e+07   3.04e-31
  2.0312e+07   2.69e-31
  2.1145e+07   2.36e-31
  2.2013e+07   2.05e-31
  2.2917e+07   1.76e-31
  2.3858e+07   1.48e-31
  2.4837e+07   1.23e-31
  2.5857e+07   9.93e-32
  2.6919e+07   7.84e-32
  2.8024e+07   6.00e-32
  2.9174e+07   4.43e-32
  3.0372e+07   3.13e-32
  3.1619e+07   2.09e-32
  3.2917e+07   1.31e-32
  3.4268e+07   7.53e-33
  3.5675e+07   3.91e-33
  3.7140e+07   1.78e-33
  3.8664e+07   6.92e-34
  4.0252e+07   2.18e-34
  4.1904e+07   5.30e-35
  4.3624e+07   9.13e-36
  4.5415e+07   1.01e-36
  4.7280e+07   6.25e-38
  4.9221e+07   1.78e-39
  5.1241e+07   1.80e-41
  5.3345e+07   4.46e-44
  5.5535e+07   1.61e-47
  5.7815e+07   3.99e-52
  6.0188e+07   2.32e-58
  6.2659e+07   6.40e-67
  6.5232e+07   1.25e-71
  6.7910e+07   1.18e-71
  7.0698e+07   1.11e-71
  7.3600e+07   1.04e-71
  7.6621e+07   9.78e-72
  7.9767e+07   9.18e-72
  8.3042e+07   8.60e-72
  8.6451e+07   8.05e-72
  9.0000e+07   7.55e-72
