#  E [MeV]   Flux [# cm^{-2} s^{-1}  MeV^{-1}]
  3.0000e+04   1.44e-23
  3.0872e+04   1.40e-23
  3.1770e+04   1.35e-23
  3.2694e+04   1.30e-23
  3.3644e+04   1.26e-23
  3.4623e+04   1.22e-23
  3.5629e+04   1.18e-23
  3.6665e+04   1.14e-23
  3.7731e+04   1.10e-23
  3.8829e+04   1.06e-23
  3.9958e+04   1.02e-23
  4.1119e+04   9.86e-24
  4.2315e+04   9.52e-24
  4.3545e+04   9.18e-24
  4.4812e+04   8.86e-24
  4.6115e+04   8.54e-24
  4.7456e+04   8.23e-24
  4.8835e+04   7.94e-24
  5.0255e+04   7.65e-24
  5.1717e+04   7.37e-24
  5.3220e+04   7.10e-24
  5.4768e+04   6.84e-24
  5.6360e+04   6.58e-24
  5.7999e+04   6.34e-24
  5.9686e+04   6.10e-24
  6.1421e+04   5.87e-24
  6.3207e+04   5.64e-24
  6.5045e+04   5.43e-24
  6.6936e+04   5.22e-24
  6.8882e+04   5.01e-24
  7.0885e+04   4.82e-24
  7.2947e+04   4.63e-24
  7.5068e+04   4.45e-24
  7.7250e+04   4.27e-24
  7.9496e+04   4.10e-24
  8.1808e+04   3.93e-24
  8.4187e+04   3.77e-24
  8.6635e+04   3.62e-24
  8.9154e+04   3.47e-24
  9.1746e+04   3.33e-24
  9.4414e+04   3.19e-24
  9.7159e+04   3.06e-24
  9.9984e+04   2.93e-24
  1.0289e+05   2.81e-24
  1.0588e+05   2.69e-24
  1.0896e+05   2.57e-24
  1.1213e+05   2.46e-24
  1.1539e+05   2.36e-24
  1.1875e+05   2.25e-24
  1.2220e+05   2.15e-24
  1.2575e+05   2.06e-24
  1.2941e+05   1.97e-24
  1.3317e+05   1.88e-24
  1.3704e+05   1.80e-24
  1.4103e+05   1.71e-24
  1.4513e+05   1.64e-24
  1.4935e+05   1.56e-24
  1.5369e+05   1.49e-24
  1.5816e+05   1.42e-24
  1.6276e+05   1.35e-24
  1.6749e+05   1.29e-24
  1.7236e+05   1.23e-24
  1.7737e+05   1.17e-24
  1.8253e+05   1.12e-24
  1.8784e+05   1.06e-24
  1.9330e+05   1.01e-24
  1.9892e+05   9.61e-25
  2.0470e+05   9.14e-25
  2.1066e+05   8.69e-25
  2.1678e+05   8.26e-25
  2.2309e+05   7.85e-25
  2.2957e+05   7.45e-25
  2.3625e+05   7.07e-25
  2.4312e+05   6.70e-25
  2.5019e+05   6.36e-25
  2.5746e+05   6.03e-25
  2.6495e+05   5.71e-25
  2.7265e+05   5.41e-25
  2.8058e+05   5.12e-25
  2.8874e+05   4.85e-25
  2.9713e+05   4.58e-25
  3.0577e+05   4.33e-25
  3.1466e+05   4.09e-25
  3.2381e+05   3.87e-25
  3.3323e+05   3.65e-25
  3.4292e+05   3.45e-25
  3.5289e+05   3.25e-25
  3.6315e+05   3.07e-25
  3.7371e+05   2.89e-25
  3.8457e+05   2.72e-25
  3.9576e+05   2.57e-25
  4.0726e+05   2.42e-25
  4.1911e+05   2.27e-25
  4.3129e+05   2.14e-25
  4.4383e+05   2.01e-25
  4.5674e+05   1.89e-25
  4.7002e+05   1.77e-25
  4.8368e+05   1.66e-25
  4.9775e+05   1.56e-25
  5.1222e+05   1.46e-25
  5.2712e+05   1.37e-25
  5.4244e+05   1.28e-25
  5.5821e+05   1.20e-25
  5.7445e+05   1.12e-25
  5.9115e+05   1.05e-25
  6.0834e+05   9.80e-26
  6.2603e+05   9.16e-26
  6.4423e+05   8.55e-26
  6.6296e+05   7.98e-26
  6.8224e+05   7.44e-26
  7.0208e+05   6.94e-26
  7.2249e+05   6.47e-26
  7.4350e+05   6.03e-26
  7.6512e+05   5.61e-26
  7.8736e+05   5.22e-26
  8.1026e+05   4.86e-26
  8.3382e+05   4.52e-26
  8.5806e+05   4.20e-26
  8.8301e+05   3.90e-26
  9.0869e+05   3.62e-26
  9.3511e+05   3.36e-26
  9.6230e+05   3.12e-26
  9.9028e+05   2.89e-26
  1.0191e+06   2.68e-26
  1.0487e+06   2.48e-26
  1.0792e+06   2.30e-26
  1.1106e+06   2.12e-26
  1.1429e+06   1.97e-26
  1.1761e+06   1.82e-26
  1.2103e+06   1.68e-26
  1.2455e+06   1.55e-26
  1.2817e+06   1.43e-26
  1.3190e+06   1.32e-26
  1.3573e+06   1.22e-26
  1.3968e+06   1.12e-26
  1.4374e+06   1.04e-26
  1.4792e+06   9.57e-27
  1.5222e+06   8.80e-27
  1.5665e+06   8.10e-27
  1.6120e+06   7.47e-27
  1.6589e+06   6.87e-27
  1.7071e+06   6.31e-27
  1.7568e+06   5.79e-27
  1.8079e+06   5.33e-27
  1.8604e+06   4.90e-27
  1.9145e+06   4.48e-27
  1.9702e+06   4.11e-27
  2.0275e+06   3.78e-27
  2.0864e+06   3.47e-27
  2.1471e+06   3.17e-27
  2.2095e+06   2.90e-27
  2.2738e+06   2.67e-27
  2.3399e+06   2.44e-27
  2.4079e+06   2.23e-27
  2.4779e+06   2.04e-27
  2.5500e+06   1.87e-27
  2.6241e+06   1.72e-27
  2.7004e+06   1.57e-27
  2.7790e+06   1.43e-27
  2.8598e+06   1.32e-27
  2.9429e+06   1.21e-27
  3.0285e+06   1.11e-27
  3.1165e+06   1.01e-27
  3.2072e+06   9.33e-28
  3.3004e+06   8.58e-28
  3.3964e+06   7.86e-28
  3.4951e+06   7.22e-28
  3.5968e+06   6.69e-28
  3.7013e+06   6.19e-28
  3.8090e+06   5.72e-28
  3.9197e+06   5.29e-28
  4.0337e+06   4.94e-28
  4.1510e+06   4.61e-28
  4.2717e+06   4.30e-28
  4.3959e+06   4.02e-28
  4.5237e+06   3.80e-28
  4.6552e+06   3.59e-28
  4.7906e+06   3.38e-28
  4.9299e+06   3.20e-28
  5.0732e+06   3.06e-28
  5.2208e+06   2.93e-28
  5.3726e+06   2.80e-28
  5.5288e+06   2.69e-28
  5.6895e+06   2.63e-28
  5.8550e+06   2.58e-28
  6.0252e+06   2.52e-28
  6.2004e+06   2.47e-28
  6.3807e+06   2.49e-28
  6.5662e+06   2.50e-28
  6.7572e+06   2.50e-28
  6.9536e+06   2.52e-28
  7.1558e+06   2.67e-28
  7.3639e+06   2.81e-28
  7.5780e+06   2.92e-28
  7.7984e+06   3.09e-28
  8.0251e+06   3.58e-28
  8.2585e+06   4.03e-28
  8.4986e+06   4.42e-28
  8.7457e+06   4.65e-28
  9.0000e+06   4.26e-28
