#  E [MeV]   Flux [# cm^{-2} s^{-1}  MeV^{-1}]
  3.0000e+04   1.09e-25
  3.1232e+04   1.04e-25
  3.2514e+04   9.91e-26
  3.3849e+04   9.44e-26
  3.5238e+04   8.99e-26
  3.6685e+04   8.56e-26
  3.8191e+04   8.15e-26
  3.9759e+04   7.76e-26
  4.1391e+04   7.39e-26
  4.3090e+04   7.03e-26
  4.4859e+04   6.69e-26
  4.6701e+04   6.36e-26
  4.8618e+04   6.05e-26
  5.0614e+04   5.76e-26
  5.2692e+04   5.47e-26
  5.4855e+04   5.20e-26
  5.7107e+04   4.94e-26
  5.9451e+04   4.70e-26
  6.1892e+04   4.46e-26
  6.4433e+04   4.24e-26
  6.7078e+04   4.02e-26
  6.9832e+04   3.82e-26
  7.2699e+04   3.63e-26
  7.5683e+04   3.44e-26
  7.8790e+04   3.26e-26
  8.2025e+04   3.09e-26
  8.5392e+04   2.93e-26
  8.8898e+04   2.78e-26
  9.2547e+04   2.64e-26
  9.6347e+04   2.50e-26
  1.0030e+05   2.37e-26
  1.0442e+05   2.24e-26
  1.0871e+05   2.12e-26
  1.1317e+05   2.01e-26
  1.1782e+05   1.90e-26
  1.2265e+05   1.80e-26
  1.2769e+05   1.70e-26
  1.3293e+05   1.61e-26
  1.3839e+05   1.52e-26
  1.4407e+05   1.43e-26
  1.4998e+05   1.35e-26
  1.5614e+05   1.28e-26
  1.6255e+05   1.21e-26
  1.6922e+05   1.14e-26
  1.7617e+05   1.07e-26
  1.8340e+05   1.01e-26
  1.9093e+05   9.50e-27
  1.9877e+05   8.94e-27
  2.0693e+05   8.40e-27
  2.1543e+05   7.90e-27
  2.2427e+05   7.42e-27
  2.3348e+05   6.96e-27
  2.4306e+05   6.53e-27
  2.5304e+05   6.12e-27
  2.6343e+05   5.73e-27
  2.7424e+05   5.37e-27
  2.8550e+05   5.02e-27
  2.9722e+05   4.69e-27
  3.0942e+05   4.37e-27
  3.2213e+05   4.08e-27
  3.3535e+05   3.80e-27
  3.4912e+05   3.54e-27
  3.6345e+05   3.29e-27
  3.7837e+05   3.05e-27
  3.9390e+05   2.83e-27
  4.1008e+05   2.63e-27
  4.2691e+05   2.43e-27
  4.4444e+05   2.25e-27
  4.6268e+05   2.08e-27
  4.8168e+05   1.92e-27
  5.0145e+05   1.77e-27
  5.2204e+05   1.64e-27
  5.4347e+05   1.51e-27
  5.6578e+05   1.39e-27
  5.8901e+05   1.27e-27
  6.1319e+05   1.17e-27
  6.3836e+05   1.07e-27
  6.6457e+05   9.86e-28
  6.9185e+05   9.04e-28
  7.2025e+05   8.28e-28
  7.4982e+05   7.58e-28
  7.8061e+05   6.94e-28
  8.1265e+05   6.35e-28
  8.4601e+05   5.81e-28
  8.8075e+05   5.31e-28
  9.1690e+05   4.85e-28
  9.5455e+05   4.44e-28
  9.9373e+05   4.05e-28
  1.0345e+06   3.70e-28
  1.0770e+06   3.38e-28
  1.1212e+06   3.09e-28
  1.1672e+06   2.82e-28
  1.2152e+06   2.58e-28
  1.2650e+06   2.35e-28
  1.3170e+06   2.15e-28
  1.3711e+06   1.97e-28
  1.4273e+06   1.80e-28
  1.4859e+06   1.65e-28
  1.5469e+06   1.51e-28
  1.6104e+06   1.38e-28
  1.6766e+06   1.26e-28
  1.7454e+06   1.16e-28
  1.8170e+06   1.06e-28
  1.8916e+06   9.70e-29
  1.9693e+06   8.88e-29
  2.0501e+06   8.13e-29
  2.1343e+06   7.44e-29
  2.2219e+06   6.80e-29
  2.3131e+06   6.21e-29
  2.4081e+06   5.67e-29
  2.5070e+06   5.17e-29
  2.6099e+06   4.71e-29
  2.7170e+06   4.29e-29
  2.8286e+06   3.90e-29
  2.9447e+06   3.54e-29
  3.0656e+06   3.21e-29
  3.1914e+06   2.91e-29
  3.3225e+06   2.62e-29
  3.4589e+06   2.37e-29
  3.6008e+06   2.13e-29
  3.7487e+06   1.91e-29
  3.9026e+06   1.72e-29
  4.0628e+06   1.53e-29
  4.2296e+06   1.36e-29
  4.4032e+06   1.21e-29
  4.5840e+06   1.07e-29
  4.7722e+06   9.47e-30
  4.9681e+06   8.33e-30
  5.1720e+06   7.28e-30
  5.3844e+06   6.36e-30
  5.6054e+06   5.52e-30
  5.8355e+06   4.76e-30
  6.0751e+06   4.10e-30
  6.3245e+06   3.50e-30
  6.5841e+06   2.97e-30
  6.8544e+06   2.51e-30
  7.1358e+06   2.11e-30
  7.4288e+06   1.75e-30
  7.7338e+06   1.45e-30
  8.0513e+06   1.19e-30
  8.3818e+06   9.60e-31
  8.7259e+06   7.73e-31
  9.0841e+06   6.12e-31
  9.4571e+06   4.80e-31
  9.8453e+06   3.72e-31
  1.0249e+07   2.84e-31
  1.0670e+07   2.13e-31
  1.1108e+07   1.58e-31
  1.1564e+07   1.14e-31
  1.2039e+07   8.10e-32
  1.2533e+07   5.63e-32
  1.3048e+07   3.79e-32
  1.3584e+07   2.50e-32
  1.4141e+07   1.59e-32
  1.4722e+07   9.71e-33
  1.5326e+07   5.78e-33
  1.5955e+07   3.26e-33
  1.6610e+07   1.74e-33
  1.7292e+07   8.86e-34
  1.8002e+07   4.19e-34
  1.8741e+07   1.83e-34
  1.9511e+07   7.44e-35
  2.0312e+07   2.71e-35
  2.1145e+07   8.80e-36
  2.2013e+07   2.53e-36
  2.2917e+07   6.16e-37
  2.3858e+07   1.26e-37
  2.4837e+07   2.09e-38
  2.5857e+07   2.66e-39
  2.6919e+07   2.55e-40
  2.8024e+07   1.72e-41
  2.9174e+07   7.45e-43
  3.0372e+07   1.98e-44
  3.1619e+07   2.82e-46
  3.2917e+07   1.85e-48
  3.4268e+07   4.97e-51
  3.5675e+07   4.22e-54
  3.7140e+07   8.56e-58
  3.8664e+07   3.05e-62
  4.0252e+07   1.15e-67
  4.1904e+07   2.24e-72
  4.3624e+07   1.95e-72
  4.5415e+07   1.69e-72
  4.7280e+07   1.47e-72
  4.9221e+07   1.29e-72
  5.1241e+07   1.13e-72
  5.3345e+07   1.00e-72
  5.5535e+07   8.94e-73
  5.7815e+07   7.94e-73
  6.0188e+07   7.10e-73
  6.2659e+07   6.38e-73
  6.5232e+07   5.70e-73
  6.7910e+07   5.11e-73
  7.0698e+07   4.57e-73
  7.3600e+07   4.06e-73
  7.6621e+07   3.58e-73
  7.9767e+07   3.12e-73
  8.3042e+07   2.70e-73
  8.6451e+07   2.36e-73
  9.0000e+07   2.05e-73
