#  E [MeV]   Flux [# cm^{-2} s^{-1}  MeV^{-1}]
  3.0000e+04   5.65e-24
  3.0962e+04   5.42e-24
  3.1955e+04   5.20e-24
  3.2979e+04   5.00e-24
  3.4037e+04   4.80e-24
  3.5128e+04   4.60e-24
  3.6254e+04   4.42e-24
  3.7417e+04   4.24e-24
  3.8616e+04   4.06e-24
  3.9855e+04   3.90e-24
  4.1132e+04   3.74e-24
  4.2451e+04   3.58e-24
  4.3812e+04   3.44e-24
  4.5217e+04   3.29e-24
  4.6667e+04   3.16e-24
  4.8163e+04   3.03e-24
  4.9707e+04   2.90e-24
  5.1301e+04   2.78e-24
  5.2946e+04   2.66e-24
  5.4644e+04   2.55e-24
  5.6396e+04   2.44e-24
  5.8204e+04   2.33e-24
  6.0070e+04   2.23e-24
  6.1996e+04   2.14e-24
  6.3984e+04   2.04e-24
  6.6035e+04   1.95e-24
  6.8153e+04   1.87e-24
  7.0338e+04   1.79e-24
  7.2593e+04   1.71e-24
  7.4921e+04   1.63e-24
  7.7323e+04   1.56e-24
  7.9802e+04   1.49e-24
  8.2361e+04   1.42e-24
  8.5002e+04   1.36e-24
  8.7727e+04   1.29e-24
  9.0540e+04   1.24e-24
  9.3443e+04   1.18e-24
  9.6439e+04   1.12e-24
  9.9531e+04   1.07e-24
  1.0272e+05   1.02e-24
  1.0602e+05   9.73e-25
  1.0942e+05   9.26e-25
  1.1292e+05   8.82e-25
  1.1654e+05   8.39e-25
  1.2028e+05   7.99e-25
  1.2414e+05   7.60e-25
  1.2812e+05   7.22e-25
  1.3223e+05   6.87e-25
  1.3646e+05   6.52e-25
  1.4084e+05   6.20e-25
  1.4536e+05   5.88e-25
  1.5002e+05   5.58e-25
  1.5483e+05   5.30e-25
  1.5979e+05   5.02e-25
  1.6491e+05   4.76e-25
  1.7020e+05   4.51e-25
  1.7566e+05   4.28e-25
  1.8129e+05   4.05e-25
  1.8710e+05   3.83e-25
  1.9310e+05   3.63e-25
  1.9929e+05   3.43e-25
  2.0568e+05   3.25e-25
  2.1228e+05   3.07e-25
  2.1909e+05   2.90e-25
  2.2611e+05   2.74e-25
  2.3336e+05   2.58e-25
  2.4084e+05   2.44e-25
  2.4856e+05   2.30e-25
  2.5653e+05   2.17e-25
  2.6476e+05   2.04e-25
  2.7325e+05   1.92e-25
  2.8201e+05   1.81e-25
  2.9105e+05   1.70e-25
  3.0038e+05   1.60e-25
  3.1002e+05   1.50e-25
  3.1996e+05   1.41e-25
  3.3021e+05   1.32e-25
  3.4080e+05   1.24e-25
  3.5173e+05   1.16e-25
  3.6301e+05   1.09e-25
  3.7465e+05   1.02e-25
  3.8666e+05   9.53e-26
  3.9905e+05   8.91e-26
  4.1185e+05   8.32e-26
  4.2506e+05   7.76e-26
  4.3868e+05   7.23e-26
  4.5275e+05   6.74e-26
  4.6727e+05   6.28e-26
  4.8225e+05   5.84e-26
  4.9771e+05   5.43e-26
  5.1367e+05   5.05e-26
  5.3014e+05   4.68e-26
  5.4714e+05   4.34e-26
  5.6468e+05   4.03e-26
  5.8278e+05   3.73e-26
  6.0147e+05   3.45e-26
  6.2075e+05   3.19e-26
  6.4066e+05   2.96e-26
  6.6120e+05   2.73e-26
  6.8240e+05   2.52e-26
  7.0428e+05   2.32e-26
  7.2686e+05   2.14e-26
  7.5017e+05   1.97e-26
  7.7422e+05   1.81e-26
  7.9904e+05   1.67e-26
  8.2466e+05   1.53e-26
  8.5110e+05   1.41e-26
  8.7839e+05   1.29e-26
  9.0656e+05   1.18e-26
  9.3562e+05   1.08e-26
  9.6562e+05   9.91e-27
  9.9658e+05   9.08e-27
  1.0285e+06   8.31e-27
  1.0615e+06   7.58e-27
  1.0956e+06   6.91e-27
  1.1307e+06   6.32e-27
  1.1669e+06   5.77e-27
  1.2043e+06   5.25e-27
  1.2430e+06   4.78e-27
  1.2828e+06   4.36e-27
  1.3239e+06   3.96e-27
  1.3664e+06   3.59e-27
  1.4102e+06   3.27e-27
  1.4554e+06   2.97e-27
  1.5021e+06   2.69e-27
  1.5502e+06   2.43e-27
  1.6000e+06   2.21e-27
  1.6513e+06   2.00e-27
  1.7042e+06   1.80e-27
  1.7588e+06   1.63e-27
  1.8152e+06   1.47e-27
  1.8734e+06   1.33e-27
  1.9335e+06   1.19e-27
  1.9955e+06   1.07e-27
  2.0595e+06   9.68e-28
  2.1255e+06   8.69e-28
  2.1937e+06   7.78e-28
  2.2640e+06   7.01e-28
  2.3366e+06   6.29e-28
  2.4115e+06   5.61e-28
  2.4888e+06   5.03e-28
  2.5686e+06   4.52e-28
  2.6510e+06   4.03e-28
  2.7360e+06   3.57e-28
  2.8237e+06   3.21e-28
  2.9142e+06   2.87e-28
  3.0077e+06   2.55e-28
  3.1041e+06   2.26e-28
  3.2036e+06   2.02e-28
  3.3064e+06   1.79e-28
  3.4124e+06   1.58e-28
  3.5218e+06   1.40e-28
  3.6347e+06   1.25e-28
  3.7512e+06   1.10e-28
  3.8715e+06   9.67e-29
  3.9957e+06   8.62e-29
  4.1238e+06   7.64e-29
  4.2560e+06   6.71e-29
  4.3924e+06   5.90e-29
  4.5333e+06   5.25e-29
  4.6786e+06   4.63e-29
  4.8286e+06   4.05e-29
  4.9835e+06   3.58e-29
  5.1433e+06   3.18e-29
  5.3082e+06   2.79e-29
  5.4784e+06   2.44e-29
  5.6540e+06   2.17e-29
  5.8353e+06   1.92e-29
  6.0224e+06   1.68e-29
  6.2155e+06   1.48e-29
  6.4148e+06   1.32e-29
  6.6205e+06   1.17e-29
  6.8327e+06   1.03e-29
  7.0518e+06   9.19e-30
  7.2779e+06   8.19e-30
  7.5113e+06   7.27e-30
  7.7521e+06   6.42e-30
  8.0007e+06   5.75e-30
  8.2572e+06   5.13e-30
  8.5219e+06   4.55e-30
  8.7952e+06   4.04e-30
  9.0772e+06   3.61e-30
  9.3682e+06   3.21e-30
  9.6686e+06   2.84e-30
  9.9786e+06   2.53e-30
  1.0299e+07   2.25e-30
  1.0629e+07   1.99e-30
  1.0970e+07   1.75e-30
  1.1321e+07   1.55e-30
  1.1684e+07   1.36e-30
  1.2059e+07   1.19e-30
  1.2446e+07   1.03e-30
  1.2845e+07   8.93e-31
  1.3256e+07   7.66e-31
  1.3681e+07   6.51e-31
  1.4120e+07   5.48e-31
  1.4573e+07   4.57e-31
  1.5040e+07   3.76e-31
  1.5522e+07   3.08e-31
  1.6020e+07   2.54e-31
