#  E [GeV]   # per interaction  [GeV^{-1}]
  3.0000e+01   1.01e-02
  3.0765e+01   9.78e-03
  3.1549e+01   9.45e-03
  3.2354e+01   9.13e-03
  3.3179e+01   8.81e-03
  3.4025e+01   8.51e-03
  3.4892e+01   8.21e-03
  3.5782e+01   7.93e-03
  3.6695e+01   7.65e-03
  3.7630e+01   7.39e-03
  3.8590e+01   7.13e-03
  3.9574e+01   6.88e-03
  4.0583e+01   6.64e-03
  4.1618e+01   6.41e-03
  4.2679e+01   6.18e-03
  4.3767e+01   5.96e-03
  4.4883e+01   5.75e-03
  4.6028e+01   5.55e-03
  4.7201e+01   5.35e-03
  4.8405e+01   5.16e-03
  4.9639e+01   4.98e-03
  5.0905e+01   4.80e-03
  5.2203e+01   4.63e-03
  5.3534e+01   4.46e-03
  5.4899e+01   4.30e-03
  5.6299e+01   4.14e-03
  5.7734e+01   3.99e-03
  5.9207e+01   3.85e-03
  6.0716e+01   3.71e-03
  6.2264e+01   3.57e-03
  6.3852e+01   3.44e-03
  6.5480e+01   3.32e-03
  6.7150e+01   3.20e-03
  6.8862e+01   3.08e-03
  7.0618e+01   2.97e-03
  7.2419e+01   2.86e-03
  7.4265e+01   2.75e-03
  7.6159e+01   2.65e-03
  7.8101e+01   2.56e-03
  8.0092e+01   2.46e-03
  8.2135e+01   2.37e-03
  8.4229e+01   2.29e-03
  8.6377e+01   2.20e-03
  8.8579e+01   2.12e-03
  9.0838e+01   2.04e-03
  9.3154e+01   1.97e-03
  9.5529e+01   1.90e-03
  9.7965e+01   1.83e-03
  1.0046e+02   1.76e-03
  1.0303e+02   1.69e-03
  1.0565e+02   1.63e-03
  1.0835e+02   1.57e-03
  1.1111e+02   1.51e-03
  1.1394e+02   1.46e-03
  1.1685e+02   1.40e-03
  1.1983e+02   1.35e-03
  1.2288e+02   1.30e-03
  1.2602e+02   1.25e-03
  1.2923e+02   1.21e-03
  1.3252e+02   1.16e-03
  1.3590e+02   1.12e-03
  1.3937e+02   1.08e-03
  1.4292e+02   1.04e-03
  1.4657e+02   1.00e-03
  1.5030e+02   9.63e-04
  1.5414e+02   9.27e-04
  1.5807e+02   8.93e-04
  1.6210e+02   8.60e-04
  1.6623e+02   8.28e-04
  1.7047e+02   7.97e-04
  1.7482e+02   7.68e-04
  1.7927e+02   7.39e-04
  1.8384e+02   7.12e-04
  1.8853e+02   6.86e-04
  1.9334e+02   6.60e-04
  1.9827e+02   6.36e-04
  2.0333e+02   6.13e-04
  2.0851e+02   5.90e-04
  2.1383e+02   5.68e-04
  2.1928e+02   5.48e-04
  2.2487e+02   5.28e-04
  2.3060e+02   5.08e-04
  2.3648e+02   4.89e-04
  2.4251e+02   4.71e-04
  2.4870e+02   4.54e-04
  2.5504e+02   4.37e-04
  2.6154e+02   4.21e-04
  2.6821e+02   4.06e-04
  2.7505e+02   3.91e-04
  2.8206e+02   3.76e-04
  2.8926e+02   3.62e-04
  2.9663e+02   3.49e-04
  3.0420e+02   3.36e-04
  3.1195e+02   3.23e-04
  3.1991e+02   3.11e-04
  3.2806e+02   2.99e-04
  3.3643e+02   2.88e-04
  3.4501e+02   2.77e-04
  3.5381e+02   2.66e-04
  3.6283e+02   2.56e-04
  3.7208e+02   2.46e-04
  3.8157e+02   2.37e-04
  3.9130e+02   2.28e-04
  4.0127e+02   2.19e-04
  4.1150e+02   2.11e-04
  4.2200e+02   2.02e-04
  4.3276e+02   1.95e-04
  4.4379e+02   1.87e-04
  4.5511e+02   1.80e-04
  4.6671e+02   1.73e-04
  4.7861e+02   1.66e-04
  4.9082e+02   1.60e-04
  5.0333e+02   1.54e-04
  5.1617e+02   1.48e-04
  5.2933e+02   1.42e-04
  5.4283e+02   1.36e-04
  5.5667e+02   1.31e-04
  5.7086e+02   1.26e-04
  5.8542e+02   1.21e-04
  6.0035e+02   1.16e-04
  6.1565e+02   1.11e-04
  6.3135e+02   1.07e-04
  6.4745e+02   1.03e-04
  6.6396e+02   9.87e-05
  6.8089e+02   9.48e-05
  6.9825e+02   9.10e-05
  7.1606e+02   8.74e-05
  7.3432e+02   8.40e-05
  7.5304e+02   8.06e-05
  7.7224e+02   7.75e-05
  7.9193e+02   7.44e-05
  8.1213e+02   7.15e-05
  8.3283e+02   6.86e-05
  8.5407e+02   6.59e-05
  8.7585e+02   6.33e-05
  8.9818e+02   6.08e-05
  9.2108e+02   5.83e-05
  9.4457e+02   5.60e-05
  9.6866e+02   5.38e-05
  9.9336e+02   5.16e-05
  1.0187e+03   4.96e-05
  1.0447e+03   4.76e-05
  1.0713e+03   4.57e-05
  1.0986e+03   4.39e-05
  1.1266e+03   4.22e-05
  1.1554e+03   4.05e-05
  1.1848e+03   3.89e-05
  1.2150e+03   3.74e-05
  1.2460e+03   3.59e-05
  1.2778e+03   3.45e-05
  1.3104e+03   3.31e-05
  1.3438e+03   3.18e-05
  1.3780e+03   3.06e-05
  1.4132e+03   2.94e-05
  1.4492e+03   2.82e-05
  1.4862e+03   2.71e-05
  1.5241e+03   2.61e-05
  1.5629e+03   2.50e-05
  1.6028e+03   2.41e-05
  1.6436e+03   2.31e-05
  1.6856e+03   2.22e-05
  1.7285e+03   2.14e-05
  1.7726e+03   2.05e-05
  1.8178e+03   1.97e-05
  1.8642e+03   1.90e-05
  1.9117e+03   1.82e-05
  1.9604e+03   1.75e-05
  2.0104e+03   1.68e-05
  2.0617e+03   1.62e-05
  2.1143e+03   1.55e-05
  2.1682e+03   1.49e-05
  2.2235e+03   1.43e-05
  2.2802e+03   1.37e-05
  2.3383e+03   1.32e-05
  2.3979e+03   1.27e-05
  2.4591e+03   1.21e-05
  2.5218e+03   1.16e-05
  2.5861e+03   1.12e-05
  2.6520e+03   1.07e-05
  2.7196e+03   1.03e-05
  2.7890e+03   9.83e-06
  2.8601e+03   9.42e-06
  2.9330e+03   9.03e-06
  3.0078e+03   8.65e-06
  3.0845e+03   8.28e-06
  3.1632e+03   7.93e-06
  3.2438e+03   7.59e-06
  3.3265e+03   7.27e-06
  3.4113e+03   6.95e-06
  3.4983e+03   6.64e-06
  3.5875e+03   6.35e-06
  3.6790e+03   6.07e-06
  3.7728e+03   5.79e-06
  3.8690e+03   5.52e-06
  3.9677e+03   5.26e-06
  4.0689e+03   5.01e-06
  4.1726e+03   4.77e-06
  4.2790e+03   4.54e-06
  4.3881e+03   4.34e-06
  4.5000e+03   4.15e-06
