#  E [MeV]   Flux [# cm^{-2} s^{-1}  MeV^{-1}]
  3.0000e+04   4.51e-25
  3.1141e+04   4.33e-25
  3.2326e+04   4.16e-25
  3.3556e+04   3.99e-25
  3.4832e+04   3.83e-25
  3.6157e+04   3.68e-25
  3.7533e+04   3.53e-25
  3.8961e+04   3.39e-25
  4.0443e+04   3.25e-25
  4.1982e+04   3.12e-25
  4.3579e+04   2.99e-25
  4.5237e+04   2.87e-25
  4.6958e+04   2.76e-25
  4.8744e+04   2.64e-25
  5.0598e+04   2.54e-25
  5.2523e+04   2.43e-25
  5.4521e+04   2.33e-25
  5.6596e+04   2.24e-25
  5.8749e+04   2.14e-25
  6.0984e+04   2.06e-25
  6.3304e+04   1.97e-25
  6.5712e+04   1.89e-25
  6.8212e+04   1.81e-25
  7.0807e+04   1.74e-25
  7.3500e+04   1.66e-25
  7.6297e+04   1.59e-25
  7.9199e+04   1.53e-25
  8.2212e+04   1.46e-25
  8.5340e+04   1.40e-25
  8.8586e+04   1.34e-25
  9.1956e+04   1.28e-25
  9.5455e+04   1.23e-25
  9.9086e+04   1.17e-25
  1.0286e+05   1.12e-25
  1.0677e+05   1.07e-25
  1.1083e+05   1.03e-25
  1.1505e+05   9.81e-26
  1.1942e+05   9.37e-26
  1.2397e+05   8.95e-26
  1.2868e+05   8.55e-26
  1.3358e+05   8.17e-26
  1.3866e+05   7.79e-26
  1.4394e+05   7.44e-26
  1.4941e+05   7.10e-26
  1.5509e+05   6.77e-26
  1.6100e+05   6.45e-26
  1.6712e+05   6.15e-26
  1.7348e+05   5.85e-26
  1.8008e+05   5.57e-26
  1.8693e+05   5.30e-26
  1.9404e+05   5.05e-26
  2.0142e+05   4.80e-26
  2.0908e+05   4.56e-26
  2.1704e+05   4.33e-26
  2.2529e+05   4.11e-26
  2.3387e+05   3.90e-26
  2.4276e+05   3.70e-26
  2.5200e+05   3.51e-26
  2.6158e+05   3.32e-26
  2.7154e+05   3.15e-26
  2.8187e+05   2.98e-26
  2.9259e+05   2.82e-26
  3.0372e+05   2.66e-26
  3.1527e+05   2.51e-26
  3.2727e+05   2.37e-26
  3.3972e+05   2.23e-26
  3.5264e+05   2.11e-26
  3.6606e+05   1.98e-26
  3.7998e+05   1.87e-26
  3.9444e+05   1.75e-26
  4.0945e+05   1.65e-26
  4.2502e+05   1.55e-26
  4.4119e+05   1.45e-26
  4.5798e+05   1.36e-26
  4.7540e+05   1.27e-26
  4.9348e+05   1.19e-26
  5.1226e+05   1.12e-26
  5.3175e+05   1.04e-26
  5.5198e+05   9.74e-27
  5.7297e+05   9.09e-27
  5.9477e+05   8.48e-27
  6.1740e+05   7.91e-27
  6.4089e+05   7.37e-27
  6.6527e+05   6.86e-27
  6.9058e+05   6.38e-27
  7.1685e+05   5.93e-27
  7.4412e+05   5.52e-27
  7.7243e+05   5.13e-27
  8.0181e+05   4.76e-27
  8.3232e+05   4.42e-27
  8.6398e+05   4.10e-27
  8.9685e+05   3.81e-27
  9.3097e+05   3.53e-27
  9.6638e+05   3.27e-27
  1.0031e+06   3.03e-27
  1.0413e+06   2.81e-27
  1.0809e+06   2.60e-27
  1.1220e+06   2.41e-27
  1.1647e+06   2.23e-27
  1.2090e+06   2.07e-27
  1.2550e+06   1.91e-27
  1.3028e+06   1.77e-27
  1.3523e+06   1.64e-27
  1.4038e+06   1.52e-27
  1.4572e+06   1.40e-27
  1.5126e+06   1.29e-27
  1.5702e+06   1.20e-27
  1.6299e+06   1.11e-27
  1.6919e+06   1.02e-27
  1.7563e+06   9.43e-28
  1.8231e+06   8.70e-28
  1.8925e+06   8.03e-28
  1.9645e+06   7.40e-28
  2.0392e+06   6.83e-28
  2.1168e+06   6.29e-28
  2.1973e+06   5.79e-28
  2.2809e+06   5.34e-28
  2.3677e+06   4.91e-28
  2.4577e+06   4.51e-28
  2.5512e+06   4.14e-28
  2.6483e+06   3.80e-28
  2.7490e+06   3.49e-28
  2.8536e+06   3.20e-28
  2.9622e+06   2.92e-28
  3.0749e+06   2.67e-28
  3.1918e+06   2.45e-28
  3.3133e+06   2.23e-28
  3.4393e+06   2.03e-28
  3.5702e+06   1.85e-28
  3.7060e+06   1.69e-28
  3.8470e+06   1.53e-28
  3.9933e+06   1.39e-28
  4.1452e+06   1.26e-28
  4.3029e+06   1.14e-28
  4.4666e+06   1.03e-28
  4.6366e+06   9.26e-29
  4.8129e+06   8.32e-29
  4.9960e+06   7.48e-29
  5.1861e+06   6.70e-29
  5.3834e+06   5.98e-29
  5.5882e+06   5.34e-29
  5.8008e+06   4.76e-29
  6.0215e+06   4.21e-29
  6.2506e+06   3.73e-29
  6.4883e+06   3.30e-29
  6.7352e+06   2.90e-29
  6.9914e+06   2.55e-29
  7.2574e+06   2.23e-29
  7.5335e+06   1.94e-29
  7.8201e+06   1.68e-29
  8.1176e+06   1.46e-29
  8.4264e+06   1.25e-29
  8.7470e+06   1.07e-29
  9.0797e+06   9.16e-30
  9.4251e+06   7.75e-30
  9.7837e+06   6.53e-30
  1.0156e+07   5.48e-30
  1.0542e+07   4.55e-30
  1.0943e+07   3.74e-30
  1.1360e+07   3.08e-30
  1.1792e+07   2.49e-30
  1.2240e+07   2.00e-30
  1.2706e+07   1.59e-30
  1.3189e+07   1.25e-30
  1.3691e+07   9.67e-31
  1.4212e+07   7.45e-31
  1.4753e+07   5.61e-31
  1.5314e+07   4.13e-31
  1.5897e+07   3.03e-31
  1.6501e+07   2.15e-31
  1.7129e+07   1.48e-31
  1.7781e+07   1.01e-31
  1.8457e+07   6.67e-32
  1.9159e+07   4.19e-32
  1.9888e+07   2.58e-32
  2.0645e+07   1.51e-32
  2.1430e+07   8.26e-33
  2.2245e+07   4.36e-33
  2.3092e+07   2.14e-33
  2.3970e+07   9.54e-34
  2.4882e+07   3.97e-34
  2.5829e+07   1.48e-34
  2.6811e+07   4.78e-35
  2.7831e+07   1.36e-35
  2.8890e+07   3.23e-36
  2.9989e+07   6.13e-37
  3.1130e+07   9.13e-38
  3.2314e+07   1.01e-38
  3.3544e+07   7.52e-40
  3.4820e+07   3.57e-41
  3.6144e+07   9.73e-43
  3.7519e+07   1.29e-44
  3.8947e+07   7.19e-47
  4.0428e+07   1.36e-49
  4.1966e+07   6.22e-53
  4.3563e+07   4.76e-57
  4.5220e+07   3.69e-62
  4.6941e+07   1.41e-68
  4.8726e+07   2.27e-72
  5.0580e+07   1.71e-72
