#  E [GeV]   # per interaction  [GeV^{-1}]
  3.0000e+01   2.71e-01
  3.0607e+01   2.62e-01
  3.1227e+01   2.53e-01
  3.1859e+01   2.45e-01
  3.2504e+01   2.37e-01
  3.3163e+01   2.29e-01
  3.3834e+01   2.22e-01
  3.4519e+01   2.15e-01
  3.5218e+01   2.07e-01
  3.5931e+01   2.01e-01
  3.6659e+01   1.94e-01
  3.7401e+01   1.87e-01
  3.8158e+01   1.81e-01
  3.8931e+01   1.75e-01
  3.9719e+01   1.69e-01
  4.0523e+01   1.63e-01
  4.1344e+01   1.58e-01
  4.2181e+01   1.52e-01
  4.3035e+01   1.47e-01
  4.3906e+01   1.42e-01
  4.4795e+01   1.37e-01
  4.5702e+01   1.32e-01
  4.6628e+01   1.27e-01
  4.7572e+01   1.22e-01
  4.8535e+01   1.18e-01
  4.9517e+01   1.14e-01
  5.0520e+01   1.10e-01
  5.1543e+01   1.06e-01
  5.2587e+01   1.02e-01
  5.3651e+01   9.79e-02
  5.4738e+01   9.42e-02
  5.5846e+01   9.06e-02
  5.6977e+01   8.72e-02
  5.8130e+01   8.39e-02
  5.9307e+01   8.07e-02
  6.0508e+01   7.76e-02
  6.1733e+01   7.46e-02
  6.2983e+01   7.17e-02
  6.4258e+01   6.89e-02
  6.5559e+01   6.61e-02
  6.6887e+01   6.35e-02
  6.8241e+01   6.10e-02
  6.9623e+01   5.85e-02
  7.1033e+01   5.61e-02
  7.2471e+01   5.39e-02
  7.3938e+01   5.17e-02
  7.5435e+01   4.95e-02
  7.6963e+01   4.74e-02
  7.8521e+01   4.54e-02
  8.0111e+01   4.35e-02
  8.1733e+01   4.17e-02
  8.3388e+01   3.99e-02
  8.5076e+01   3.82e-02
  8.6799e+01   3.65e-02
  8.8556e+01   3.49e-02
  9.0349e+01   3.33e-02
  9.2178e+01   3.19e-02
  9.4045e+01   3.04e-02
  9.5949e+01   2.91e-02
  9.7892e+01   2.77e-02
  9.9874e+01   2.64e-02
  1.0190e+02   2.52e-02
  1.0396e+02   2.41e-02
  1.0606e+02   2.29e-02
  1.0821e+02   2.19e-02
  1.1040e+02   2.08e-02
  1.1264e+02   1.98e-02
  1.1492e+02   1.89e-02
  1.1725e+02   1.80e-02
  1.1962e+02   1.71e-02
  1.2204e+02   1.62e-02
  1.2451e+02   1.54e-02
  1.2703e+02   1.46e-02
  1.2961e+02   1.39e-02
  1.3223e+02   1.32e-02
  1.3491e+02   1.25e-02
  1.3764e+02   1.18e-02
  1.4043e+02   1.12e-02
  1.4327e+02   1.06e-02
  1.4617e+02   1.01e-02
  1.4913e+02   9.55e-03
  1.5215e+02   9.03e-03
  1.5523e+02   8.52e-03
  1.5837e+02   8.05e-03
  1.6158e+02   7.61e-03
  1.6485e+02   7.19e-03
  1.6819e+02   6.78e-03
  1.7159e+02   6.39e-03
  1.7507e+02   6.00e-03
  1.7861e+02   5.66e-03
  1.8223e+02   5.34e-03
  1.8592e+02   5.02e-03
  1.8968e+02   4.72e-03
  1.9352e+02   4.43e-03
  1.9744e+02   4.15e-03
  2.0144e+02   3.90e-03
  2.0552e+02   3.67e-03
  2.0968e+02   3.44e-03
  2.1392e+02   3.22e-03
  2.1826e+02   3.01e-03
  2.2267e+02   2.81e-03
  2.2718e+02   2.64e-03
  2.3178e+02   2.47e-03
  2.3648e+02   2.31e-03
  2.4126e+02   2.16e-03
  2.4615e+02   2.01e-03
  2.5113e+02   1.87e-03
  2.5622e+02   1.75e-03
  2.6141e+02   1.64e-03
  2.6670e+02   1.52e-03
  2.7210e+02   1.41e-03
  2.7761e+02   1.31e-03
  2.8323e+02   1.22e-03
  2.8896e+02   1.14e-03
  2.9481e+02   1.06e-03
  3.0078e+02   9.81e-04
  3.0687e+02   9.07e-04
  3.1309e+02   8.36e-04
  3.1943e+02   7.78e-04
  3.2589e+02   7.22e-04
  3.3249e+02   6.69e-04
  3.3922e+02   6.17e-04
  3.4609e+02   5.67e-04
  3.5310e+02   5.21e-04
  3.6025e+02   4.84e-04
  3.6754e+02   4.47e-04
  3.7498e+02   4.12e-04
  3.8258e+02   3.78e-04
  3.9032e+02   3.45e-04
  3.9823e+02   3.18e-04
  4.0629e+02   2.93e-04
  4.1452e+02   2.70e-04
  4.2291e+02   2.48e-04
  4.3147e+02   2.26e-04
  4.4021e+02   2.05e-04
  4.4912e+02   1.89e-04
  4.5821e+02   1.74e-04
  4.6749e+02   1.60e-04
  4.7696e+02   1.46e-04
  4.8661e+02   1.32e-04
  4.9647e+02   1.20e-04
  5.0652e+02   1.10e-04
  5.1678e+02   1.01e-04
  5.2724e+02   9.21e-05
  5.3791e+02   8.37e-05
  5.4881e+02   7.56e-05
  5.5992e+02   6.84e-05
  5.7125e+02   6.28e-05
  5.8282e+02   5.73e-05
  5.9462e+02   5.21e-05
  6.0666e+02   4.71e-05
  6.1894e+02   4.23e-05
  6.3148e+02   3.83e-05
  6.4426e+02   3.50e-05
  6.5731e+02   3.19e-05
  6.7061e+02   2.88e-05
  6.8419e+02   2.59e-05
  6.9805e+02   2.31e-05
  7.1218e+02   2.10e-05
  7.2660e+02   1.92e-05
  7.4131e+02   1.74e-05
  7.5632e+02   1.57e-05
  7.7163e+02   1.41e-05
  7.8726e+02   1.25e-05
  8.0320e+02   1.15e-05
  8.1946e+02   1.05e-05
  8.3605e+02   9.51e-06
  8.5298e+02   8.58e-06
  8.7025e+02   7.69e-06
  8.8787e+02   6.93e-06
  9.0585e+02   6.36e-06
  9.2419e+02   5.81e-06
  9.4290e+02   5.29e-06
  9.6199e+02   4.78e-06
  9.8147e+02   4.30e-06
  1.0013e+03   3.93e-06
  1.0216e+03   3.64e-06
  1.0423e+03   3.35e-06
  1.0634e+03   3.08e-06
  1.0849e+03   2.82e-06
  1.1069e+03   2.57e-06
  1.1293e+03   2.39e-06
  1.1522e+03   2.23e-06
  1.1755e+03   2.08e-06
  1.1993e+03   1.93e-06
  1.2236e+03   1.78e-06
  1.2484e+03   1.65e-06
  1.2736e+03   1.55e-06
  1.2994e+03   1.45e-06
  1.3257e+03   1.36e-06
  1.3526e+03   1.27e-06
  1.3800e+03   1.18e-06
  1.4079e+03   1.10e-06
  1.4364e+03   1.03e-06
  1.4655e+03   9.66e-07
  1.4952e+03   9.02e-07
  1.5255e+03   8.40e-07
  1.5563e+03   7.81e-07
  1.5879e+03   7.35e-07
  1.6200e+03   6.97e-07
