#  E [MeV]   Flux [# cm^{-2} s^{-1}  MeV^{-1}]
  3.0000e+04   3.88e-20
  3.0589e+04   3.84e-20
  3.1190e+04   3.79e-20
  3.1803e+04   3.75e-20
  3.2428e+04   3.71e-20
  3.3065e+04   3.67e-20
  3.3714e+04   3.63e-20
  3.4376e+04   3.58e-20
  3.5052e+04   3.54e-20
  3.5740e+04   3.50e-20
  3.6442e+04   3.46e-20
  3.7158e+04   3.43e-20
  3.7888e+04   3.39e-20
  3.8632e+04   3.35e-20
  3.9391e+04   3.31e-20
  4.0165e+04   3.27e-20
  4.0954e+04   3.24e-20
  4.1758e+04   3.20e-20
  4.2579e+04   3.16e-20
  4.3415e+04   3.13e-20
  4.4268e+04   3.09e-20
  4.5138e+04   3.06e-20
  4.6024e+04   3.02e-20
  4.6928e+04   2.99e-20
  4.7850e+04   2.95e-20
  4.8790e+04   2.92e-20
  4.9749e+04   2.89e-20
  5.0726e+04   2.85e-20
  5.1722e+04   2.82e-20
  5.2738e+04   2.79e-20
  5.3774e+04   2.75e-20
  5.4831e+04   2.72e-20
  5.5908e+04   2.69e-20
  5.7006e+04   2.66e-20
  5.8126e+04   2.63e-20
  5.9268e+04   2.60e-20
  6.0432e+04   2.57e-20
  6.1619e+04   2.54e-20
  6.2829e+04   2.50e-20
  6.4064e+04   2.47e-20
  6.5322e+04   2.44e-20
  6.6605e+04   2.41e-20
  6.7913e+04   2.38e-20
  6.9248e+04   2.35e-20
  7.0608e+04   2.32e-20
  7.1995e+04   2.29e-20
  7.3409e+04   2.27e-20
  7.4851e+04   2.24e-20
  7.6321e+04   2.21e-20
  7.7821e+04   2.18e-20
  7.9349e+04   2.15e-20
  8.0908e+04   2.12e-20
  8.2497e+04   2.09e-20
  8.4118e+04   2.06e-20
  8.5770e+04   2.04e-20
  8.7455e+04   2.01e-20
  8.9173e+04   1.98e-20
  9.0925e+04   1.95e-20
  9.2711e+04   1.92e-20
  9.4532e+04   1.90e-20
  9.6389e+04   1.87e-20
  9.8283e+04   1.84e-20
  1.0021e+05   1.82e-20
  1.0218e+05   1.79e-20
  1.0419e+05   1.76e-20
  1.0624e+05   1.74e-20
  1.0832e+05   1.71e-20
  1.1045e+05   1.68e-20
  1.1262e+05   1.66e-20
  1.1483e+05   1.63e-20
  1.1709e+05   1.61e-20
  1.1939e+05   1.58e-20
  1.2173e+05   1.55e-20
  1.2412e+05   1.53e-20
  1.2656e+05   1.50e-20
  1.2905e+05   1.48e-20
  1.3158e+05   1.45e-20
  1.3417e+05   1.43e-20
  1.3680e+05   1.40e-20
  1.3949e+05   1.38e-20
  1.4223e+05   1.35e-20
  1.4503e+05   1.33e-20
  1.4787e+05   1.31e-20
  1.5078e+05   1.28e-20
  1.5374e+05   1.26e-20
  1.5676e+05   1.23e-20
  1.5984e+05   1.21e-20
  1.6298e+05   1.19e-20
  1.6618e+05   1.16e-20
  1.6945e+05   1.14e-20
  1.7278e+05   1.12e-20
  1.7617e+05   1.09e-20
  1.7963e+05   1.07e-20
  1.8316e+05   1.05e-20
  1.8676e+05   1.03e-20
  1.9042e+05   1.01e-20
  1.9417e+05   9.83e-21
  1.9798e+05   9.60e-21
  2.0187e+05   9.38e-21
  2.0583e+05   9.17e-21
  2.0988e+05   8.96e-21
  2.1400e+05   8.75e-21
  2.1820e+05   8.54e-21
  2.2249e+05   8.33e-21
  2.2686e+05   8.12e-21
  2.3132e+05   7.92e-21
  2.3586e+05   7.72e-21
  2.4049e+05   7.52e-21
  2.4522e+05   7.32e-21
  2.5004e+05   7.13e-21
  2.5495e+05   6.93e-21
  2.5996e+05   6.74e-21
  2.6506e+05   6.56e-21
  2.7027e+05   6.38e-21
  2.7558e+05   6.19e-21
  2.8099e+05   6.00e-21
  2.8651e+05   5.82e-21
  2.9214e+05   5.64e-21
  2.9788e+05   5.47e-21
  3.0373e+05   5.30e-21
  3.0970e+05   5.12e-21
  3.1578e+05   4.95e-21
  3.2198e+05   4.79e-21
  3.2831e+05   4.63e-21
  3.3476e+05   4.47e-21
  3.4133e+05   4.32e-21
  3.4804e+05   4.16e-21
  3.5487e+05   4.01e-21
  3.6185e+05   3.86e-21
  3.6895e+05   3.72e-21
  3.7620e+05   3.58e-21
  3.8359e+05   3.44e-21
  3.9113e+05   3.31e-21
  3.9881e+05   3.17e-21
  4.0664e+05   3.05e-21
  4.1463e+05   2.92e-21
  4.2278e+05   2.80e-21
  4.3108e+05   2.68e-21
  4.3955e+05   2.57e-21
  4.4818e+05   2.46e-21
  4.5699e+05   2.35e-21
  4.6596e+05   2.24e-21
  4.7512e+05   2.14e-21
  4.8445e+05   2.04e-21
  4.9397e+05   1.94e-21
  5.0367e+05   1.85e-21
  5.1356e+05   1.76e-21
  5.2365e+05   1.67e-21
  5.3394e+05   1.59e-21
  5.4443e+05   1.51e-21
  5.5512e+05   1.43e-21
  5.6603e+05   1.35e-21
  5.7715e+05   1.28e-21
  5.8848e+05   1.21e-21
  6.0004e+05   1.14e-21
  6.1183e+05   1.07e-21
  6.2385e+05   1.01e-21
  6.3610e+05   9.50e-22
  6.4860e+05   8.92e-22
  6.6134e+05   8.37e-22
  6.7433e+05   7.84e-22
  6.8758e+05   7.35e-22
  7.0108e+05   6.88e-22
  7.1486e+05   6.42e-22
  7.2890e+05   5.99e-22
  7.4322e+05   5.58e-22
  7.5782e+05   5.19e-22
  7.7270e+05   4.83e-22
  7.8788e+05   4.50e-22
  8.0336e+05   4.18e-22
  8.1914e+05   3.87e-22
  8.3523e+05   3.58e-22
  8.5164e+05   3.30e-22
  8.6837e+05   3.05e-22
  8.8542e+05   2.82e-22
  9.0282e+05   2.60e-22
  9.2055e+05   2.38e-22
  9.3863e+05   2.18e-22
  9.5707e+05   1.99e-22
  9.7587e+05   1.83e-22
  9.9504e+05   1.68e-22
  1.0146e+06   1.53e-22
  1.0345e+06   1.40e-22
  1.0548e+06   1.27e-22
  1.0756e+06   1.14e-22
  1.0967e+06   1.05e-22
  1.1182e+06   9.59e-23
  1.1402e+06   8.73e-23
  1.1626e+06   7.91e-23
  1.1854e+06   7.13e-23
  1.2087e+06   6.40e-23
  1.2325e+06   5.90e-23
  1.2567e+06   5.42e-23
  1.2814e+06   4.96e-23
  1.3065e+06   4.53e-23
  1.3322e+06   4.11e-23
  1.3584e+06   3.74e-23
  1.3851e+06   3.53e-23
  1.4123e+06   3.33e-23
  1.4400e+06   3.13e-23
