#  E [MeV]   Flux [# cm^{-2} s^{-1}  MeV^{-1}]
  3.0000e+04   2.86e-19
  3.0675e+04   2.76e-19
  3.1366e+04   2.66e-19
  3.2072e+04   2.57e-19
  3.2794e+04   2.48e-19
  3.3533e+04   2.40e-19
  3.4288e+04   2.31e-19
  3.5060e+04   2.23e-19
  3.5849e+04   2.15e-19
  3.6656e+04   2.08e-19
  3.7482e+04   2.00e-19
  3.8326e+04   1.93e-19
  3.9188e+04   1.86e-19
  4.0071e+04   1.80e-19
  4.0973e+04   1.73e-19
  4.1896e+04   1.67e-19
  4.2839e+04   1.61e-19
  4.3803e+04   1.55e-19
  4.4790e+04   1.50e-19
  4.5798e+04   1.44e-19
  4.6829e+04   1.39e-19
  4.7884e+04   1.34e-19
  4.8962e+04   1.29e-19
  5.0064e+04   1.24e-19
  5.1191e+04   1.20e-19
  5.2344e+04   1.15e-19
  5.3522e+04   1.11e-19
  5.4727e+04   1.07e-19
  5.5960e+04   1.03e-19
  5.7219e+04   9.91e-20
  5.8508e+04   9.53e-20
  5.9825e+04   9.17e-20
  6.1172e+04   8.82e-20
  6.2549e+04   8.48e-20
  6.3958e+04   8.15e-20
  6.5398e+04   7.83e-20
  6.6870e+04   7.52e-20
  6.8376e+04   7.22e-20
  6.9915e+04   6.93e-20
  7.1489e+04   6.66e-20
  7.3099e+04   6.39e-20
  7.4745e+04   6.13e-20
  7.6428e+04   5.88e-20
  7.8148e+04   5.64e-20
  7.9908e+04   5.40e-20
  8.1707e+04   5.18e-20
  8.3547e+04   4.96e-20
  8.5428e+04   4.75e-20
  8.7351e+04   4.55e-20
  8.9318e+04   4.35e-20
  9.1329e+04   4.17e-20
  9.3385e+04   3.99e-20
  9.5488e+04   3.81e-20
  9.7638e+04   3.64e-20
  9.9836e+04   3.48e-20
  1.0208e+05   3.33e-20
  1.0438e+05   3.18e-20
  1.0673e+05   3.03e-20
  1.0914e+05   2.90e-20
  1.1159e+05   2.77e-20
  1.1411e+05   2.64e-20
  1.1667e+05   2.52e-20
  1.1930e+05   2.40e-20
  1.2199e+05   2.28e-20
  1.2473e+05   2.18e-20
  1.2754e+05   2.07e-20
  1.3041e+05   1.97e-20
  1.3335e+05   1.87e-20
  1.3635e+05   1.78e-20
  1.3942e+05   1.69e-20
  1.4256e+05   1.61e-20
  1.4577e+05   1.53e-20
  1.4905e+05   1.45e-20
  1.5241e+05   1.37e-20
  1.5584e+05   1.30e-20
  1.5935e+05   1.23e-20
  1.6294e+05   1.17e-20
  1.6661e+05   1.11e-20
  1.7036e+05   1.05e-20
  1.7419e+05   9.90e-21
  1.7812e+05   9.36e-21
  1.8213e+05   8.85e-21
  1.8623e+05   8.35e-21
  1.9042e+05   7.87e-21
  1.9471e+05   7.43e-21
  1.9909e+05   7.01e-21
  2.0357e+05   6.61e-21
  2.0816e+05   6.22e-21
  2.1284e+05   5.85e-21
  2.1763e+05   5.50e-21
  2.2253e+05   5.18e-21
  2.2755e+05   4.87e-21
  2.3267e+05   4.57e-21
  2.3791e+05   4.28e-21
  2.4326e+05   4.01e-21
  2.4874e+05   3.76e-21
  2.5434e+05   3.52e-21
  2.6007e+05   3.30e-21
  2.6592e+05   3.08e-21
  2.7191e+05   2.87e-21
  2.7803e+05   2.68e-21
  2.8429e+05   2.51e-21
  2.9069e+05   2.34e-21
  2.9724e+05   2.17e-21
  3.0393e+05   2.01e-21
  3.1077e+05   1.88e-21
  3.1777e+05   1.75e-21
  3.2493e+05   1.63e-21
  3.3224e+05   1.51e-21
  3.3972e+05   1.39e-21
  3.4737e+05   1.29e-21
  3.5519e+05   1.20e-21
  3.6319e+05   1.11e-21
  3.7137e+05   1.03e-21
  3.7973e+05   9.45e-22
  3.8828e+05   8.73e-22
  3.9702e+05   8.08e-22
  4.0596e+05   7.46e-22
  4.1510e+05   6.86e-22
  4.2444e+05   6.29e-22
  4.3400e+05   5.78e-22
  4.4377e+05   5.34e-22
  4.5376e+05   4.91e-22
  4.6398e+05   4.50e-22
  4.7443e+05   4.11e-22
  4.8511e+05   3.75e-22
  4.9603e+05   3.45e-22
  5.0720e+05   3.17e-22
  5.1862e+05   2.89e-22
  5.3030e+05   2.63e-22
  5.4224e+05   2.38e-22
  5.5444e+05   2.18e-22
  5.6693e+05   2.00e-22
  5.7969e+05   1.82e-22
  5.9274e+05   1.64e-22
  6.0609e+05   1.48e-22
  6.1974e+05   1.35e-22
  6.3369e+05   1.23e-22
  6.4796e+05   1.12e-22
  6.6255e+05   1.01e-22
  6.7746e+05   9.07e-23
  6.9272e+05   8.23e-23
  7.0831e+05   7.49e-23
  7.2426e+05   6.78e-23
  7.4057e+05   6.10e-23
  7.5724e+05   5.45e-23
  7.7429e+05   4.92e-23
  7.9172e+05   4.47e-23
  8.0955e+05   4.03e-23
  8.2778e+05   3.62e-23
  8.4641e+05   3.23e-23
  8.6547e+05   2.89e-23
  8.8496e+05   2.62e-23
  9.0488e+05   2.36e-23
  9.2526e+05   2.12e-23
  9.4609e+05   1.89e-23
  9.6739e+05   1.68e-23
  9.8917e+05   1.52e-23
  1.0114e+06   1.37e-23
  1.0342e+06   1.22e-23
  1.0575e+06   1.08e-23
  1.0813e+06   9.57e-24
  1.1057e+06   8.67e-24
  1.1305e+06   7.81e-24
  1.1560e+06   7.00e-24
  1.1820e+06   6.22e-24
  1.2086e+06   5.48e-24
  1.2359e+06   4.96e-24
  1.2637e+06   4.49e-24
  1.2921e+06   4.03e-24
  1.3212e+06   3.60e-24
  1.3510e+06   3.19e-24
  1.3814e+06   2.88e-24
  1.4125e+06   2.62e-24
  1.4443e+06   2.37e-24
  1.4768e+06   2.13e-24
  1.5101e+06   1.90e-24
  1.5441e+06   1.72e-24
  1.5788e+06   1.58e-24
  1.6144e+06   1.45e-24
  1.6507e+06   1.32e-24
  1.6879e+06   1.20e-24
  1.7259e+06   1.10e-24
  1.7648e+06   1.02e-24
  1.8045e+06   9.40e-25
  1.8451e+06   8.67e-25
  1.8867e+06   7.97e-25
  1.9291e+06   7.34e-25
  1.9726e+06   6.84e-25
  2.0170e+06   6.37e-25
  2.0624e+06   5.92e-25
  2.1088e+06   5.48e-25
  2.1563e+06   5.07e-25
  2.2049e+06   4.71e-25
  2.2545e+06   4.36e-25
  2.3053e+06   4.04e-25
  2.3572e+06   3.72e-25
  2.4102e+06   3.42e-25
  2.4645e+06   3.21e-25
  2.5200e+06   3.03e-25
