#  E [MeV]   Flux [# cm^{-2} s^{-1}  MeV^{-1}]
  3.0000e+04   5.13e-26
  3.1232e+04   4.91e-26
  3.2514e+04   4.69e-26
  3.3849e+04   4.48e-26
  3.5238e+04   4.28e-26
  3.6685e+04   4.09e-26
  3.8191e+04   3.91e-26
  3.9759e+04   3.74e-26
  4.1391e+04   3.57e-26
  4.3090e+04   3.41e-26
  4.4859e+04   3.26e-26
  4.6701e+04   3.11e-26
  4.8618e+04   2.97e-26
  5.0614e+04   2.84e-26
  5.2692e+04   2.71e-26
  5.4855e+04   2.59e-26
  5.7107e+04   2.47e-26
  5.9451e+04   2.36e-26
  6.1892e+04   2.25e-26
  6.4433e+04   2.14e-26
  6.7078e+04   2.05e-26
  6.9832e+04   1.95e-26
  7.2699e+04   1.86e-26
  7.5683e+04   1.78e-26
  7.8790e+04   1.69e-26
  8.2025e+04   1.61e-26
  8.5392e+04   1.54e-26
  8.8898e+04   1.47e-26
  9.2547e+04   1.40e-26
  9.6347e+04   1.33e-26
  1.0030e+05   1.27e-26
  1.0442e+05   1.21e-26
  1.0871e+05   1.15e-26
  1.1317e+05   1.10e-26
  1.1782e+05   1.04e-26
  1.2265e+05   9.94e-27
  1.2769e+05   9.46e-27
  1.3293e+05   9.00e-27
  1.3839e+05   8.56e-27
  1.4407e+05   8.14e-27
  1.4998e+05   7.73e-27
  1.5614e+05   7.35e-27
  1.6255e+05   6.98e-27
  1.6922e+05   6.62e-27
  1.7617e+05   6.29e-27
  1.8340e+05   5.96e-27
  1.9093e+05   5.66e-27
  1.9877e+05   5.36e-27
  2.0693e+05   5.08e-27
  2.1543e+05   4.81e-27
  2.2427e+05   4.55e-27
  2.3348e+05   4.31e-27
  2.4306e+05   4.08e-27
  2.5304e+05   3.85e-27
  2.6343e+05   3.64e-27
  2.7424e+05   3.44e-27
  2.8550e+05   3.24e-27
  2.9722e+05   3.05e-27
  3.0942e+05   2.87e-27
  3.2213e+05   2.70e-27
  3.3535e+05   2.54e-27
  3.4912e+05   2.39e-27
  3.6345e+05   2.24e-27
  3.7837e+05   2.11e-27
  3.9390e+05   1.97e-27
  4.1008e+05   1.85e-27
  4.2691e+05   1.73e-27
  4.4444e+05   1.62e-27
  4.6268e+05   1.51e-27
  4.8168e+05   1.41e-27
  5.0145e+05   1.32e-27
  5.2204e+05   1.23e-27
  5.4347e+05   1.14e-27
  5.6578e+05   1.06e-27
  5.8901e+05   9.89e-28
  6.1319e+05   9.19e-28
  6.3836e+05   8.53e-28
  6.6457e+05   7.92e-28
  6.9185e+05   7.34e-28
  7.2025e+05   6.81e-28
  7.4982e+05   6.31e-28
  7.8061e+05   5.84e-28
  8.1265e+05   5.40e-28
  8.4601e+05   5.00e-28
  8.8075e+05   4.62e-28
  9.1690e+05   4.28e-28
  9.5455e+05   3.95e-28
  9.9373e+05   3.65e-28
  1.0345e+06   3.37e-28
  1.0770e+06   3.12e-28
  1.1212e+06   2.88e-28
  1.1672e+06   2.66e-28
  1.2152e+06   2.45e-28
  1.2650e+06   2.27e-28
  1.3170e+06   2.09e-28
  1.3711e+06   1.93e-28
  1.4273e+06   1.78e-28
  1.4859e+06   1.65e-28
  1.5469e+06   1.52e-28
  1.6104e+06   1.40e-28
  1.6766e+06   1.29e-28
  1.7454e+06   1.19e-28
  1.8170e+06   1.10e-28
  1.8916e+06   1.02e-28
  1.9693e+06   9.36e-29
  2.0501e+06   8.63e-29
  2.1343e+06   7.95e-29
  2.2219e+06   7.32e-29
  2.3131e+06   6.73e-29
  2.4081e+06   6.19e-29
  2.5070e+06   5.69e-29
  2.6099e+06   5.22e-29
  2.7170e+06   4.79e-29
  2.8286e+06   4.40e-29
  2.9447e+06   4.03e-29
  3.0656e+06   3.69e-29
  3.1914e+06   3.37e-29
  3.3225e+06   3.08e-29
  3.4589e+06   2.81e-29
  3.6008e+06   2.56e-29
  3.7487e+06   2.33e-29
  3.9026e+06   2.12e-29
  4.0628e+06   1.92e-29
  4.2296e+06   1.74e-29
  4.4032e+06   1.57e-29
  4.5840e+06   1.42e-29
  4.7722e+06   1.28e-29
  4.9681e+06   1.15e-29
  5.1720e+06   1.03e-29
  5.3844e+06   9.18e-30
  5.6054e+06   8.21e-30
  5.8355e+06   7.30e-30
  6.0751e+06   6.47e-30
  6.3245e+06   5.73e-30
  6.5841e+06   5.05e-30
  6.8544e+06   4.44e-30
  7.1358e+06   3.89e-30
  7.4288e+06   3.39e-30
  7.7338e+06   2.94e-30
  8.0513e+06   2.54e-30
  8.3818e+06   2.19e-30
  8.7259e+06   1.87e-30
  9.0841e+06   1.59e-30
  9.4571e+06   1.34e-30
  9.8453e+06   1.13e-30
  1.0249e+07   9.37e-31
  1.0670e+07   7.72e-31
  1.1108e+07   6.32e-31
  1.1564e+07   5.12e-31
  1.2039e+07   4.09e-31
  1.2533e+07   3.25e-31
  1.3048e+07   2.53e-31
  1.3584e+07   1.94e-31
  1.4141e+07   1.47e-31
  1.4722e+07   1.09e-31
  1.5326e+07   7.89e-32
  1.5955e+07   5.60e-32
  1.6610e+07   3.85e-32
  1.7292e+07   2.57e-32
  1.8002e+07   1.66e-32
  1.8741e+07   1.02e-32
  1.9511e+07   6.05e-33
  2.0312e+07   3.39e-33
  2.1145e+07   1.77e-33
  2.2013e+07   8.66e-34
  2.2917e+07   3.88e-34
  2.3858e+07   1.56e-34
  2.4837e+07   5.63e-35
  2.5857e+07   1.75e-35
  2.6919e+07   4.57e-36
  2.8024e+07   9.82e-37
  2.9174e+07   1.64e-37
  3.0372e+07   2.02e-38
  3.1619e+07   1.73e-39
  3.2917e+07   9.40e-41
  3.4268e+07   2.90e-42
  3.5675e+07   4.48e-44
  3.7140e+07   2.84e-46
  3.8664e+07   5.89e-49
  4.0252e+07   2.93e-52
  4.1904e+07   2.29e-56
  4.3624e+07   1.63e-61
  4.5415e+07   5.01e-68
  4.7280e+07   1.22e-71
  4.9221e+07   1.17e-71
  5.1241e+07   1.14e-71
  5.3345e+07   1.11e-71
  5.5535e+07   1.10e-71
  5.7815e+07   1.10e-71
  6.0188e+07   1.10e-71
  6.2659e+07   1.14e-71
  6.5232e+07   1.18e-71
  6.7910e+07   1.23e-71
  7.0698e+07   1.39e-71
  7.3600e+07   1.54e-71
  7.6621e+07   1.81e-71
  7.9767e+07   2.51e-71
  8.3042e+07   3.16e-71
  8.6451e+07   4.10e-71
  9.0000e+07   5.60e-71
