#  E [MeV]   Flux [# cm^{-2} s^{-1}  MeV^{-1}]
  3.0000e+04   1.08e-25
  3.1141e+04   1.04e-25
  3.2326e+04   1.00e-25
  3.3556e+04   9.63e-26
  3.4832e+04   9.27e-26
  3.6157e+04   8.91e-26
  3.7533e+04   8.57e-26
  3.8961e+04   8.24e-26
  4.0443e+04   7.92e-26
  4.1982e+04   7.61e-26
  4.3579e+04   7.32e-26
  4.5237e+04   7.03e-26
  4.6958e+04   6.75e-26
  4.8744e+04   6.48e-26
  5.0598e+04   6.23e-26
  5.2523e+04   5.98e-26
  5.4521e+04   5.74e-26
  5.6596e+04   5.51e-26
  5.8749e+04   5.28e-26
  6.0984e+04   5.07e-26
  6.3304e+04   4.86e-26
  6.5712e+04   4.66e-26
  6.8212e+04   4.47e-26
  7.0807e+04   4.28e-26
  7.3500e+04   4.10e-26
  7.6297e+04   3.93e-26
  7.9199e+04   3.77e-26
  8.2212e+04   3.61e-26
  8.5340e+04   3.46e-26
  8.8586e+04   3.31e-26
  9.1956e+04   3.17e-26
  9.5455e+04   3.03e-26
  9.9086e+04   2.90e-26
  1.0286e+05   2.78e-26
  1.0677e+05   2.66e-26
  1.1083e+05   2.54e-26
  1.1505e+05   2.43e-26
  1.1942e+05   2.32e-26
  1.2397e+05   2.22e-26
  1.2868e+05   2.12e-26
  1.3358e+05   2.03e-26
  1.3866e+05   1.94e-26
  1.4394e+05   1.85e-26
  1.4941e+05   1.77e-26
  1.5509e+05   1.69e-26
  1.6100e+05   1.62e-26
  1.6712e+05   1.54e-26
  1.7348e+05   1.47e-26
  1.8008e+05   1.41e-26
  1.8693e+05   1.34e-26
  1.9404e+05   1.28e-26
  2.0142e+05   1.23e-26
  2.0908e+05   1.17e-26
  2.1704e+05   1.12e-26
  2.2529e+05   1.07e-26
  2.3387e+05   1.02e-26
  2.4276e+05   9.72e-27
  2.5200e+05   9.28e-27
  2.6158e+05   8.86e-27
  2.7154e+05   8.46e-27
  2.8187e+05   8.07e-27
  2.9259e+05   7.71e-27
  3.0372e+05   7.36e-27
  3.1527e+05   7.03e-27
  3.2727e+05   6.72e-27
  3.3972e+05   6.42e-27
  3.5264e+05   6.13e-27
  3.6606e+05   5.87e-27
  3.7998e+05   5.61e-27
  3.9444e+05   5.36e-27
  4.0945e+05   5.13e-27
  4.2502e+05   4.91e-27
  4.4119e+05   4.70e-27
  4.5798e+05   4.50e-27
  4.7540e+05   4.31e-27
  4.9348e+05   4.12e-27
  5.1226e+05   3.95e-27
  5.3175e+05   3.79e-27
  5.5198e+05   3.63e-27
  5.7297e+05   3.48e-27
  5.9477e+05   3.34e-27
  6.1740e+05   3.21e-27
  6.4089e+05   3.08e-27
  6.6527e+05   2.96e-27
  6.9058e+05   2.85e-27
  7.1685e+05   2.74e-27
  7.4412e+05   2.63e-27
  7.7243e+05   2.54e-27
  8.0181e+05   2.44e-27
  8.3232e+05   2.35e-27
  8.6398e+05   2.27e-27
  8.9685e+05   2.19e-27
  9.3097e+05   2.11e-27
  9.6638e+05   2.04e-27
  1.0031e+06   1.97e-27
  1.0413e+06   1.90e-27
  1.0809e+06   1.84e-27
  1.1220e+06   1.77e-27
  1.1647e+06   1.72e-27
  1.2090e+06   1.66e-27
  1.2550e+06   1.61e-27
  1.3028e+06   1.56e-27
  1.3523e+06   1.51e-27
  1.4038e+06   1.46e-27
  1.4572e+06   1.42e-27
  1.5126e+06   1.37e-27
  1.5702e+06   1.33e-27
  1.6299e+06   1.29e-27
  1.6919e+06   1.25e-27
  1.7563e+06   1.22e-27
  1.8231e+06   1.18e-27
  1.8925e+06   1.15e-27
  1.9645e+06   1.11e-27
  2.0392e+06   1.08e-27
  2.1168e+06   1.05e-27
  2.1973e+06   1.02e-27
  2.2809e+06   9.91e-28
  2.3677e+06   9.63e-28
  2.4577e+06   9.35e-28
  2.5512e+06   9.08e-28
  2.6483e+06   8.82e-28
  2.7490e+06   8.57e-28
  2.8536e+06   8.32e-28
  2.9622e+06   8.08e-28
  3.0749e+06   7.84e-28
  3.1918e+06   7.61e-28
  3.3133e+06   7.38e-28
  3.4393e+06   7.15e-28
  3.5702e+06   6.94e-28
  3.7060e+06   6.72e-28
  3.8470e+06   6.51e-28
  3.9933e+06   6.30e-28
  4.1452e+06   6.10e-28
  4.3029e+06   5.90e-28
  4.4666e+06   5.70e-28
  4.6366e+06   5.51e-28
  4.8129e+06   5.32e-28
  4.9960e+06   5.14e-28
  5.1861e+06   4.95e-28
  5.3834e+06   4.77e-28
  5.5882e+06   4.60e-28
  5.8008e+06   4.42e-28
  6.0215e+06   4.25e-28
  6.2506e+06   4.08e-28
  6.4883e+06   3.91e-28
  6.7352e+06   3.75e-28
  6.9914e+06   3.59e-28
  7.2574e+06   3.43e-28
  7.5335e+06   3.27e-28
  7.8201e+06   3.12e-28
  8.1176e+06   2.97e-28
  8.4264e+06   2.83e-28
  8.7470e+06   2.69e-28
  9.0797e+06   2.55e-28
  9.4251e+06   2.41e-28
  9.7837e+06   2.28e-28
  1.0156e+07   2.15e-28
  1.0542e+07   2.02e-28
  1.0943e+07   1.90e-28
  1.1360e+07   1.78e-28
  1.1792e+07   1.66e-28
  1.2240e+07   1.54e-28
  1.2706e+07   1.44e-28
  1.3189e+07   1.33e-28
  1.3691e+07   1.23e-28
  1.4212e+07   1.13e-28
  1.4753e+07   1.03e-28
  1.5314e+07   9.45e-29
  1.5897e+07   8.59e-29
  1.6501e+07   7.77e-29
  1.7129e+07   6.99e-29
  1.7781e+07   6.26e-29
  1.8457e+07   5.57e-29
  1.9159e+07   4.92e-29
  1.9888e+07   4.31e-29
  2.0645e+07   3.74e-29
  2.1430e+07   3.21e-29
  2.2245e+07   2.73e-29
  2.3092e+07   2.29e-29
  2.3970e+07   1.90e-29
  2.4882e+07   1.54e-29
  2.5829e+07   1.24e-29
  2.6811e+07   9.70e-30
  2.7831e+07   7.41e-30
  2.8890e+07   5.53e-30
  2.9989e+07   4.00e-30
  3.1130e+07   2.77e-30
  3.2314e+07   1.84e-30
  3.3544e+07   1.16e-30
  3.4820e+07   6.76e-31
  3.6144e+07   3.67e-31
  3.7519e+07   1.82e-31
  3.8947e+07   7.90e-32
  4.0428e+07   2.99e-32
  4.1966e+07   9.49e-33
  4.3563e+07   2.36e-33
  4.5220e+07   4.39e-34
  4.6941e+07   5.68e-35
  4.8726e+07   4.43e-36
  5.0580e+07   1.83e-37
