#  E [MeV]   Flux [# cm^{-2} s^{-1}  MeV^{-1}]
  3.0000e+04   2.30e-26
  3.1051e+04   2.21e-26
  3.2139e+04   2.13e-26
  3.3266e+04   2.05e-26
  3.4432e+04   1.97e-26
  3.5638e+04   1.90e-26
  3.6887e+04   1.83e-26
  3.8180e+04   1.76e-26
  3.9518e+04   1.69e-26
  4.0903e+04   1.63e-26
  4.2336e+04   1.57e-26
  4.3820e+04   1.50e-26
  4.5355e+04   1.45e-26
  4.6945e+04   1.39e-26
  4.8590e+04   1.34e-26
  5.0293e+04   1.28e-26
  5.2055e+04   1.23e-26
  5.3879e+04   1.19e-26
  5.5767e+04   1.14e-26
  5.7722e+04   1.09e-26
  5.9745e+04   1.05e-26
  6.1838e+04   1.01e-26
  6.4005e+04   9.67e-27
  6.6248e+04   9.28e-27
  6.8570e+04   8.91e-27
  7.0973e+04   8.55e-27
  7.3460e+04   8.20e-27
  7.6034e+04   7.87e-27
  7.8699e+04   7.54e-27
  8.1457e+04   7.23e-27
  8.4311e+04   6.94e-27
  8.7266e+04   6.65e-27
  9.0324e+04   6.38e-27
  9.3490e+04   6.11e-27
  9.6766e+04   5.86e-27
  1.0016e+05   5.62e-27
  1.0367e+05   5.38e-27
  1.0730e+05   5.16e-27
  1.1106e+05   4.94e-27
  1.1495e+05   4.74e-27
  1.1898e+05   4.54e-27
  1.2315e+05   4.35e-27
  1.2747e+05   4.17e-27
  1.3193e+05   3.99e-27
  1.3656e+05   3.82e-27
  1.4134e+05   3.66e-27
  1.4629e+05   3.51e-27
  1.5142e+05   3.36e-27
  1.5673e+05   3.22e-27
  1.6222e+05   3.09e-27
  1.6790e+05   2.96e-27
  1.7379e+05   2.83e-27
  1.7988e+05   2.71e-27
  1.8618e+05   2.60e-27
  1.9271e+05   2.49e-27
  1.9946e+05   2.38e-27
  2.0645e+05   2.28e-27
  2.1369e+05   2.19e-27
  2.2117e+05   2.10e-27
  2.2892e+05   2.01e-27
  2.3695e+05   1.92e-27
  2.4525e+05   1.84e-27
  2.5385e+05   1.76e-27
  2.6274e+05   1.69e-27
  2.7195e+05   1.62e-27
  2.8148e+05   1.55e-27
  2.9134e+05   1.48e-27
  3.0155e+05   1.42e-27
  3.1212e+05   1.36e-27
  3.2306e+05   1.30e-27
  3.3438e+05   1.25e-27
  3.4610e+05   1.19e-27
  3.5823e+05   1.14e-27
  3.7078e+05   1.10e-27
  3.8377e+05   1.05e-27
  3.9722e+05   1.00e-27
  4.1114e+05   9.61e-28
  4.2555e+05   9.20e-28
  4.4046e+05   8.81e-28
  4.5590e+05   8.43e-28
  4.7188e+05   8.06e-28
  4.8841e+05   7.72e-28
  5.0553e+05   7.38e-28
  5.2324e+05   7.06e-28
  5.4158e+05   6.76e-28
  5.6056e+05   6.47e-28
  5.8020e+05   6.19e-28
  6.0054e+05   5.92e-28
  6.2158e+05   5.67e-28
  6.4337e+05   5.42e-28
  6.6591e+05   5.19e-28
  6.8925e+05   4.97e-28
  7.1340e+05   4.76e-28
  7.3840e+05   4.55e-28
  7.6428e+05   4.36e-28
  7.9106e+05   4.18e-28
  8.1878e+05   4.00e-28
  8.4748e+05   3.83e-28
  8.7718e+05   3.67e-28
  9.0792e+05   3.52e-28
  9.3973e+05   3.38e-28
  9.7267e+05   3.24e-28
  1.0068e+06   3.11e-28
  1.0420e+06   2.98e-28
  1.0785e+06   2.87e-28
  1.1163e+06   2.75e-28
  1.1555e+06   2.65e-28
  1.1960e+06   2.54e-28
  1.2379e+06   2.45e-28
  1.2813e+06   2.35e-28
  1.3262e+06   2.27e-28
  1.3726e+06   2.18e-28
  1.4207e+06   2.10e-28
  1.4705e+06   2.02e-28
  1.5220e+06   1.95e-28
  1.5754e+06   1.88e-28
  1.6306e+06   1.81e-28
  1.6877e+06   1.75e-28
  1.7469e+06   1.68e-28
  1.8081e+06   1.62e-28
  1.8715e+06   1.57e-28
  1.9370e+06   1.51e-28
  2.0049e+06   1.45e-28
  2.0752e+06   1.40e-28
  2.1479e+06   1.35e-28
  2.2232e+06   1.30e-28
  2.3011e+06   1.25e-28
  2.3817e+06   1.21e-28
  2.4652e+06   1.16e-28
  2.5516e+06   1.12e-28
  2.6410e+06   1.07e-28
  2.7336e+06   1.03e-28
  2.8294e+06   9.91e-29
  2.9285e+06   9.51e-29
  3.0311e+06   9.11e-29
  3.1374e+06   8.73e-29
  3.2473e+06   8.35e-29
  3.3611e+06   7.99e-29
  3.4789e+06   7.62e-29
  3.6008e+06   7.26e-29
  3.7270e+06   6.92e-29
  3.8576e+06   6.58e-29
  3.9928e+06   6.24e-29
  4.1327e+06   5.92e-29
  4.2775e+06   5.60e-29
  4.4274e+06   5.28e-29
  4.5826e+06   4.98e-29
  4.7432e+06   4.69e-29
  4.9094e+06   4.40e-29
  5.0815e+06   4.11e-29
  5.2595e+06   3.84e-29
  5.4438e+06   3.58e-29
  5.6346e+06   3.32e-29
  5.8321e+06   3.07e-29
  6.0365e+06   2.83e-29
  6.2480e+06   2.60e-29
  6.4670e+06   2.38e-29
  6.6936e+06   2.18e-29
  6.9282e+06   1.98e-29
  7.1709e+06   1.79e-29
  7.4222e+06   1.61e-29
  7.6823e+06   1.44e-29
  7.9516e+06   1.28e-29
  8.2302e+06   1.14e-29
  8.5186e+06   1.00e-29
  8.8172e+06   8.78e-30
  9.1262e+06   7.63e-30
  9.4460e+06   6.59e-30
  9.7770e+06   5.64e-30
  1.0120e+07   4.78e-30
  1.0474e+07   4.02e-30
  1.0841e+07   3.34e-30
  1.1221e+07   2.75e-30
  1.1614e+07   2.23e-30
  1.2022e+07   1.79e-30
  1.2443e+07   1.41e-30
  1.2879e+07   1.10e-30
  1.3330e+07   8.39e-31
  1.3797e+07   6.31e-31
  1.4281e+07   4.65e-31
  1.4781e+07   3.34e-31
  1.5299e+07   2.35e-31
  1.5835e+07   1.61e-31
  1.6390e+07   1.07e-31
  1.6965e+07   6.91e-32
  1.7559e+07   4.30e-32
  1.8175e+07   2.56e-32
  1.8812e+07   1.45e-32
  1.9471e+07   7.93e-33
  2.0153e+07   4.08e-33
  2.0859e+07   1.95e-33
  2.1590e+07   8.81e-34
  2.2347e+07   3.69e-34
  2.3130e+07   1.40e-34
  2.3941e+07   4.78e-35
  2.4780e+07   1.49e-35
  2.5648e+07   4.00e-36
  2.6547e+07   9.10e-37
  2.7477e+07   1.80e-37
  2.8440e+07   2.88e-38
