#  E [MeV]   Flux [# cm^{-2} s^{-1}  MeV^{-1}]
  3.0000e+04   1.84e-22
  3.0517e+04   1.78e-22
  3.1043e+04   1.72e-22
  3.1578e+04   1.66e-22
  3.2123e+04   1.60e-22
  3.2676e+04   1.54e-22
  3.3240e+04   1.49e-22
  3.3813e+04   1.43e-22
  3.4396e+04   1.38e-22
  3.4989e+04   1.33e-22
  3.5592e+04   1.29e-22
  3.6205e+04   1.24e-22
  3.6829e+04   1.19e-22
  3.7464e+04   1.15e-22
  3.8110e+04   1.11e-22
  3.8767e+04   1.07e-22
  3.9435e+04   1.03e-22
  4.0115e+04   9.87e-23
  4.0807e+04   9.49e-23
  4.1510e+04   9.12e-23
  4.2226e+04   8.77e-23
  4.2953e+04   8.44e-23
  4.3694e+04   8.11e-23
  4.4447e+04   7.80e-23
  4.5213e+04   7.49e-23
  4.5993e+04   7.19e-23
  4.6786e+04   6.89e-23
  4.7592e+04   6.62e-23
  4.8412e+04   6.36e-23
  4.9247e+04   6.11e-23
  5.0096e+04   5.86e-23
  5.0960e+04   5.62e-23
  5.1838e+04   5.38e-23
  5.2732e+04   5.16e-23
  5.3641e+04   4.95e-23
  5.4565e+04   4.74e-23
  5.5506e+04   4.55e-23
  5.6463e+04   4.35e-23
  5.7436e+04   4.17e-23
  5.8426e+04   3.98e-23
  5.9433e+04   3.81e-23
  6.0458e+04   3.65e-23
  6.1500e+04   3.50e-23
  6.2560e+04   3.34e-23
  6.3639e+04   3.20e-23
  6.4736e+04   3.05e-23
  6.5852e+04   2.91e-23
  6.6987e+04   2.79e-23
  6.8142e+04   2.67e-23
  6.9316e+04   2.55e-23
  7.0511e+04   2.43e-23
  7.1727e+04   2.32e-23
  7.2963e+04   2.21e-23
  7.4221e+04   2.11e-23
  7.5500e+04   2.01e-23
  7.6802e+04   1.92e-23
  7.8126e+04   1.83e-23
  7.9472e+04   1.75e-23
  8.0842e+04   1.66e-23
  8.2236e+04   1.58e-23
  8.3654e+04   1.50e-23
  8.5096e+04   1.43e-23
  8.6563e+04   1.37e-23
  8.8055e+04   1.30e-23
  8.9573e+04   1.24e-23
  9.1117e+04   1.17e-23
  9.2687e+04   1.11e-23
  9.4285e+04   1.06e-23
  9.5911e+04   1.01e-23
  9.7564e+04   9.57e-24
  9.9246e+04   9.09e-24
  1.0096e+05   8.62e-24
  1.0270e+05   8.16e-24
  1.0447e+05   7.72e-24
  1.0627e+05   7.34e-24
  1.0810e+05   6.97e-24
  1.0996e+05   6.61e-24
  1.1186e+05   6.27e-24
  1.1379e+05   5.93e-24
  1.1575e+05   5.60e-24
  1.1774e+05   5.29e-24
  1.1977e+05   5.02e-24
  1.2184e+05   4.76e-24
  1.2394e+05   4.51e-24
  1.2608e+05   4.26e-24
  1.2825e+05   4.03e-24
  1.3046e+05   3.79e-24
  1.3271e+05   3.58e-24
  1.3500e+05   3.39e-24
  1.3732e+05   3.21e-24
  1.3969e+05   3.03e-24
  1.4210e+05   2.86e-24
  1.4455e+05   2.70e-24
  1.4704e+05   2.53e-24
  1.4957e+05   2.39e-24
  1.5215e+05   2.26e-24
  1.5478e+05   2.14e-24
  1.5744e+05   2.02e-24
  1.6016e+05   1.90e-24
  1.6292e+05   1.78e-24
  1.6573e+05   1.67e-24
  1.6858e+05   1.58e-24
  1.7149e+05   1.49e-24
  1.7445e+05   1.40e-24
  1.7745e+05   1.32e-24
  1.8051e+05   1.24e-24
  1.8362e+05   1.16e-24
  1.8679e+05   1.09e-24
  1.9001e+05   1.02e-24
  1.9328e+05   9.65e-25
  1.9662e+05   9.08e-25
  2.0001e+05   8.52e-25
  2.0345e+05   7.97e-25
  2.0696e+05   7.45e-25
  2.1053e+05   6.99e-25
  2.1416e+05   6.58e-25
  2.1785e+05   6.19e-25
  2.2160e+05   5.81e-25
  2.2543e+05   5.44e-25
  2.2931e+05   5.08e-25
  2.3326e+05   4.73e-25
  2.3729e+05   4.45e-25
  2.4138e+05   4.18e-25
  2.4554e+05   3.92e-25
  2.4977e+05   3.68e-25
  2.5407e+05   3.44e-25
  2.5845e+05   3.20e-25
  2.6291e+05   2.98e-25
  2.6744e+05   2.80e-25
  2.7205e+05   2.63e-25
  2.7674e+05   2.47e-25
  2.8151e+05   2.31e-25
  2.8637e+05   2.15e-25
  2.9130e+05   2.00e-25
  2.9632e+05   1.87e-25
  3.0143e+05   1.75e-25
  3.0663e+05   1.64e-25
  3.1191e+05   1.54e-25
  3.1729e+05   1.44e-25
  3.2276e+05   1.34e-25
  3.2832e+05   1.24e-25
  3.3398e+05   1.16e-25
  3.3974e+05   1.09e-25
  3.4560e+05   1.02e-25
  3.5155e+05   9.53e-26
  3.5761e+05   8.89e-26
  3.6378e+05   8.27e-26
  3.7005e+05   7.67e-26
  3.7643e+05   7.18e-26
  3.8292e+05   6.72e-26
  3.8952e+05   6.27e-26
  3.9623e+05   5.85e-26
  4.0306e+05   5.43e-26
  4.1001e+05   5.04e-26
  4.1708e+05   4.66e-26
  4.2427e+05   4.37e-26
  4.3158e+05   4.09e-26
  4.3902e+05   3.83e-26
  4.4659e+05   3.57e-26
  4.5429e+05   3.32e-26
  4.6212e+05   3.08e-26
  4.7009e+05   2.87e-26
  4.7819e+05   2.70e-26
  4.8643e+05   2.54e-26
  4.9482e+05   2.38e-26
  5.0335e+05   2.23e-26
  5.1203e+05   2.08e-26
  5.2085e+05   1.94e-26
  5.2983e+05   1.83e-26
  5.3897e+05   1.74e-26
  5.4826e+05   1.65e-26
  5.5771e+05   1.56e-26
  5.6732e+05   1.48e-26
  5.7710e+05   1.40e-26
  5.8705e+05   1.33e-26
  5.9717e+05   1.27e-26
  6.0746e+05   1.22e-26
  6.1793e+05   1.17e-26
  6.2859e+05   1.12e-26
  6.3942e+05   1.07e-26
  6.5045e+05   1.02e-26
  6.6166e+05   9.81e-27
  6.7306e+05   9.51e-27
  6.8467e+05   9.22e-27
  6.9647e+05   8.93e-27
  7.0847e+05   8.66e-27
  7.2069e+05   8.39e-27
  7.3311e+05   8.13e-27
  7.4575e+05   7.89e-27
  7.5860e+05   7.67e-27
  7.7168e+05   7.45e-27
  7.8498e+05   7.24e-27
  7.9852e+05   7.04e-27
  8.1228e+05   6.84e-27
  8.2628e+05   6.65e-27
  8.4053e+05   6.47e-27
  8.5502e+05   6.29e-27
  8.6976e+05   6.11e-27
  8.8475e+05   5.94e-27
  9.0000e+05   5.78e-27
