#  E [GeV]   # per interaction  [GeV^{-1}]
  3.0000e+01   6.31e-01
  3.1141e+01   6.06e-01
  3.2326e+01   5.83e-01
  3.3556e+01   5.60e-01
  3.4832e+01   5.38e-01
  3.6157e+01   5.17e-01
  3.7533e+01   4.96e-01
  3.8961e+01   4.77e-01
  4.0443e+01   4.58e-01
  4.1982e+01   4.40e-01
  4.3579e+01   4.22e-01
  4.5237e+01   4.05e-01
  4.6958e+01   3.89e-01
  4.8744e+01   3.74e-01
  5.0598e+01   3.59e-01
  5.2523e+01   3.44e-01
  5.4521e+01   3.30e-01
  5.6596e+01   3.17e-01
  5.8749e+01   3.04e-01
  6.0984e+01   2.92e-01
  6.3304e+01   2.80e-01
  6.5712e+01   2.68e-01
  6.8212e+01   2.57e-01
  7.0807e+01   2.46e-01
  7.3500e+01   2.36e-01
  7.6297e+01   2.26e-01
  7.9199e+01   2.17e-01
  8.2212e+01   2.08e-01
  8.5340e+01   1.99e-01
  8.8586e+01   1.90e-01
  9.1956e+01   1.82e-01
  9.5455e+01   1.74e-01
  9.9086e+01   1.67e-01
  1.0286e+02   1.60e-01
  1.0677e+02   1.52e-01
  1.1083e+02   1.46e-01
  1.1505e+02   1.39e-01
  1.1942e+02   1.33e-01
  1.2397e+02   1.27e-01
  1.2868e+02   1.21e-01
  1.3358e+02   1.16e-01
  1.3866e+02   1.10e-01
  1.4394e+02   1.05e-01
  1.4941e+02   1.00e-01
  1.5509e+02   9.53e-02
  1.6100e+02   9.07e-02
  1.6712e+02   8.63e-02
  1.7348e+02   8.20e-02
  1.8008e+02   7.79e-02
  1.8693e+02   7.39e-02
  1.9404e+02   7.01e-02
  2.0142e+02   6.65e-02
  2.0908e+02   6.30e-02
  2.1704e+02   5.96e-02
  2.2529e+02   5.64e-02
  2.3387e+02   5.33e-02
  2.4276e+02   5.03e-02
  2.5200e+02   4.75e-02
  2.6158e+02   4.47e-02
  2.7154e+02   4.21e-02
  2.8187e+02   3.96e-02
  2.9259e+02   3.72e-02
  3.0372e+02   3.49e-02
  3.1527e+02   3.27e-02
  3.2727e+02   3.07e-02
  3.3972e+02   2.87e-02
  3.5264e+02   2.68e-02
  3.6606e+02   2.50e-02
  3.7998e+02   2.33e-02
  3.9444e+02   2.17e-02
  4.0945e+02   2.02e-02
  4.2502e+02   1.87e-02
  4.4119e+02   1.74e-02
  4.5798e+02   1.61e-02
  4.7540e+02   1.49e-02
  4.9348e+02   1.38e-02
  5.1226e+02   1.27e-02
  5.3175e+02   1.17e-02
  5.5198e+02   1.08e-02
  5.7297e+02   9.93e-03
  5.9477e+02   9.13e-03
  6.1740e+02   8.39e-03
  6.4089e+02   7.70e-03
  6.6527e+02   7.06e-03
  6.9058e+02   6.47e-03
  7.1685e+02   5.92e-03
  7.4412e+02   5.42e-03
  7.7243e+02   4.96e-03
  8.0181e+02   4.53e-03
  8.3232e+02   4.14e-03
  8.6398e+02   3.79e-03
  8.9685e+02   3.46e-03
  9.3097e+02   3.16e-03
  9.6638e+02   2.88e-03
  1.0031e+03   2.63e-03
  1.0413e+03   2.40e-03
  1.0809e+03   2.19e-03
  1.1220e+03   2.00e-03
  1.1647e+03   1.83e-03
  1.2090e+03   1.67e-03
  1.2550e+03   1.52e-03
  1.3028e+03   1.39e-03
  1.3523e+03   1.27e-03
  1.4038e+03   1.15e-03
  1.4572e+03   1.05e-03
  1.5126e+03   9.60e-04
  1.5702e+03   8.76e-04
  1.6299e+03   7.98e-04
  1.6919e+03   7.28e-04
  1.7563e+03   6.64e-04
  1.8231e+03   6.05e-04
  1.8925e+03   5.51e-04
  1.9645e+03   5.02e-04
  2.0392e+03   4.57e-04
  2.1168e+03   4.15e-04
  2.1973e+03   3.78e-04
  2.2809e+03   3.43e-04
  2.3677e+03   3.12e-04
  2.4577e+03   2.83e-04
  2.5512e+03   2.56e-04
  2.6483e+03   2.32e-04
  2.7490e+03   2.10e-04
  2.8536e+03   1.89e-04
  2.9622e+03   1.70e-04
  3.0749e+03   1.54e-04
  3.1918e+03   1.38e-04
  3.3133e+03   1.24e-04
  3.4393e+03   1.11e-04
  3.5702e+03   9.92e-05
  3.7060e+03   8.84e-05
  3.8470e+03   7.89e-05
  3.9933e+03   7.01e-05
  4.1452e+03   6.20e-05
  4.3029e+03   5.49e-05
  4.4666e+03   4.85e-05
  4.6366e+03   4.25e-05
  4.8129e+03   3.73e-05
  4.9960e+03   3.26e-05
  5.1861e+03   2.83e-05
  5.3834e+03   2.46e-05
  5.5882e+03   2.12e-05
  5.8008e+03   1.82e-05
  6.0215e+03   1.56e-05
  6.2506e+03   1.33e-05
  6.4883e+03   1.13e-05
  6.7352e+03   9.53e-06
  6.9914e+03   8.01e-06
  7.2574e+03   6.66e-06
  7.5335e+03   5.52e-06
  7.8201e+03   4.55e-06
  8.1176e+03   3.71e-06
  8.4264e+03   3.00e-06
  8.7470e+03   2.42e-06
  9.0797e+03   1.92e-06
  9.4251e+03   1.51e-06
  9.7837e+03   1.18e-06
  1.0156e+04   9.01e-07
  1.0542e+04   6.81e-07
  1.0943e+04   5.11e-07
  1.1360e+04   3.75e-07
  1.1792e+04   2.70e-07
  1.2240e+04   1.92e-07
  1.2706e+04   1.33e-07
  1.3189e+04   8.97e-08
  1.3691e+04   5.96e-08
  1.4212e+04   3.82e-08
  1.4753e+04   2.35e-08
  1.5314e+04   1.42e-08
  1.5897e+04   8.16e-09
  1.6501e+04   4.44e-09
  1.7129e+04   2.34e-09
  1.7781e+04   1.16e-09
  1.8457e+04   5.30e-10
  1.9159e+04   2.29e-10
  1.9888e+04   9.07e-11
  2.0645e+04   3.22e-11
  2.1430e+04   1.04e-11
  2.2245e+04   2.95e-12
  2.3092e+04   7.15e-13
  2.3970e+04   1.49e-13
  2.4882e+04   2.54e-14
  2.5829e+04   3.40e-15
  2.6811e+04   3.54e-16
  2.7831e+04   2.70e-17
  2.8890e+04   1.40e-18
  2.9989e+04   4.73e-20
  3.1130e+04   9.52e-22
  3.2314e+04   1.01e-23
  3.3544e+04   5.06e-26
  3.4820e+04   1.02e-28
  3.6144e+04   6.68e-32
  3.7519e+04   1.12e-35
  3.8947e+04   3.51e-40
  4.0428e+04   1.36e-45
  4.1966e+04   1.20e-47
  4.3563e+04   1.11e-47
  4.5220e+04   1.02e-47
  4.6941e+04   9.47e-48
  4.8726e+04   8.87e-48
  5.0580e+04   8.29e-48
