#  E [GeV]   # per interaction  [GeV^{-1}]
  3.0000e+01   5.34e-01
  3.1141e+01   5.13e-01
  3.2326e+01   4.93e-01
  3.3556e+01   4.73e-01
  3.4832e+01   4.54e-01
  3.6157e+01   4.36e-01
  3.7533e+01   4.18e-01
  3.8961e+01   4.02e-01
  4.0443e+01   3.85e-01
  4.1982e+01   3.70e-01
  4.3579e+01   3.55e-01
  4.5237e+01   3.40e-01
  4.6958e+01   3.27e-01
  4.8744e+01   3.13e-01
  5.0598e+01   3.00e-01
  5.2523e+01   2.88e-01
  5.4521e+01   2.76e-01
  5.6596e+01   2.65e-01
  5.8749e+01   2.54e-01
  6.0984e+01   2.44e-01
  6.3304e+01   2.33e-01
  6.5712e+01   2.24e-01
  6.8212e+01   2.14e-01
  7.0807e+01   2.05e-01
  7.3500e+01   1.97e-01
  7.6297e+01   1.88e-01
  7.9199e+01   1.80e-01
  8.2212e+01   1.73e-01
  8.5340e+01   1.65e-01
  8.8586e+01   1.58e-01
  9.1956e+01   1.52e-01
  9.5455e+01   1.45e-01
  9.9086e+01   1.39e-01
  1.0286e+02   1.33e-01
  1.0677e+02   1.27e-01
  1.1083e+02   1.21e-01
  1.1505e+02   1.16e-01
  1.1942e+02   1.11e-01
  1.2397e+02   1.06e-01
  1.2868e+02   1.01e-01
  1.3358e+02   9.63e-02
  1.3866e+02   9.19e-02
  1.4394e+02   8.76e-02
  1.4941e+02   8.36e-02
  1.5509e+02   7.97e-02
  1.6100e+02   7.59e-02
  1.6712e+02   7.23e-02
  1.7348e+02   6.88e-02
  1.8008e+02   6.55e-02
  1.8693e+02   6.23e-02
  1.9404e+02   5.92e-02
  2.0142e+02   5.62e-02
  2.0908e+02   5.34e-02
  2.1704e+02   5.07e-02
  2.2529e+02   4.80e-02
  2.3387e+02   4.55e-02
  2.4276e+02   4.31e-02
  2.5200e+02   4.08e-02
  2.6158e+02   3.87e-02
  2.7154e+02   3.65e-02
  2.8187e+02   3.45e-02
  2.9259e+02   3.26e-02
  3.0372e+02   3.08e-02
  3.1527e+02   2.90e-02
  3.2727e+02   2.73e-02
  3.3972e+02   2.57e-02
  3.5264e+02   2.42e-02
  3.6606e+02   2.27e-02
  3.7998e+02   2.13e-02
  3.9444e+02   2.00e-02
  4.0945e+02   1.87e-02
  4.2502e+02   1.75e-02
  4.4119e+02   1.64e-02
  4.5798e+02   1.53e-02
  4.7540e+02   1.43e-02
  4.9348e+02   1.34e-02
  5.1226e+02   1.25e-02
  5.3175e+02   1.16e-02
  5.5198e+02   1.08e-02
  5.7297e+02   1.01e-02
  5.9477e+02   9.37e-03
  6.1740e+02   8.71e-03
  6.4089e+02   8.09e-03
  6.6527e+02   7.50e-03
  6.9058e+02   6.96e-03
  7.1685e+02   6.45e-03
  7.4412e+02   5.97e-03
  7.7243e+02   5.53e-03
  8.0181e+02   5.12e-03
  8.3232e+02   4.74e-03
  8.6398e+02   4.38e-03
  8.9685e+02   4.05e-03
  9.3097e+02   3.75e-03
  9.6638e+02   3.46e-03
  1.0031e+03   3.20e-03
  1.0413e+03   2.96e-03
  1.0809e+03   2.73e-03
  1.1220e+03   2.52e-03
  1.1647e+03   2.33e-03
  1.2090e+03   2.15e-03
  1.2550e+03   1.98e-03
  1.3028e+03   1.83e-03
  1.3523e+03   1.69e-03
  1.4038e+03   1.56e-03
  1.4572e+03   1.44e-03
  1.5126e+03   1.32e-03
  1.5702e+03   1.22e-03
  1.6299e+03   1.13e-03
  1.6919e+03   1.04e-03
  1.7563e+03   9.57e-04
  1.8231e+03   8.81e-04
  1.8925e+03   8.11e-04
  1.9645e+03   7.47e-04
  2.0392e+03   6.88e-04
  2.1168e+03   6.32e-04
  2.1973e+03   5.81e-04
  2.2809e+03   5.34e-04
  2.3677e+03   4.90e-04
  2.4577e+03   4.50e-04
  2.5512e+03   4.13e-04
  2.6483e+03   3.78e-04
  2.7490e+03   3.46e-04
  2.8536e+03   3.17e-04
  2.9622e+03   2.89e-04
  3.0749e+03   2.64e-04
  3.1918e+03   2.41e-04
  3.3133e+03   2.19e-04
  3.4393e+03   1.99e-04
  3.5702e+03   1.81e-04
  3.7060e+03   1.64e-04
  3.8470e+03   1.49e-04
  3.9933e+03   1.35e-04
  4.1452e+03   1.21e-04
  4.3029e+03   1.09e-04
  4.4666e+03   9.85e-05
  4.6366e+03   8.84e-05
  4.8129e+03   7.91e-05
  4.9960e+03   7.08e-05
  5.1861e+03   6.31e-05
  5.3834e+03   5.60e-05
  5.5882e+03   4.98e-05
  5.8008e+03   4.40e-05
  6.0215e+03   3.87e-05
  6.2506e+03   3.41e-05
  6.4883e+03   2.99e-05
  6.7352e+03   2.60e-05
  6.9914e+03   2.27e-05
  7.2574e+03   1.97e-05
  7.5335e+03   1.69e-05
  7.8201e+03   1.45e-05
  8.1176e+03   1.24e-05
  8.4264e+03   1.05e-05
  8.7470e+03   8.92e-06
  9.0797e+03   7.50e-06
  9.4251e+03   6.24e-06
  9.7837e+03   5.17e-06
  1.0156e+04   4.25e-06
  1.0542e+04   3.45e-06
  1.0943e+04   2.79e-06
  1.1360e+04   2.23e-06
  1.1792e+04   1.75e-06
  1.2240e+04   1.37e-06
  1.2706e+04   1.06e-06
  1.3189e+04   8.00e-07
  1.3691e+04   5.97e-07
  1.4212e+04   4.40e-07
  1.4753e+04   3.16e-07
  1.5314e+04   2.22e-07
  1.5897e+04   1.53e-07
  1.6501e+04   1.02e-07
  1.7129e+04   6.61e-08
  1.7781e+04   4.17e-08
  1.8457e+04   2.51e-08
  1.9159e+04   1.44e-08
  1.9888e+04   7.96e-09
  2.0645e+04   4.12e-09
  2.1430e+04   1.98e-09
  2.2245e+04   8.98e-10
  2.3092e+04   3.70e-10
  2.3970e+04   1.36e-10
  2.4882e+04   4.56e-11
  2.5829e+04   1.32e-11
  2.6811e+04   3.19e-12
  2.7831e+04   6.56e-13
  2.8890e+04   1.06e-13
  2.9989e+04   1.29e-14
  3.1130e+04   1.16e-15
  3.2314e+04   7.01e-17
  3.3544e+04   2.57e-18
  3.4820e+04   5.35e-20
  3.6144e+04   5.40e-22
  3.7519e+04   2.19e-24
  3.8947e+04   2.98e-27
  4.0428e+04   1.01e-30
  4.1966e+04   5.71e-35
  4.3563e+04   3.43e-40
  4.5220e+04   1.14e-46
  4.6941e+04   3.38e-48
  4.8726e+04   2.54e-48
  5.0580e+04   1.88e-48
