#  E [MeV]   Flux [# cm^{-2} s^{-1}  MeV^{-1}]
  3.0000e+04   5.27e-19
  3.0943e+04   5.06e-19
  3.1916e+04   4.86e-19
  3.2920e+04   4.67e-19
  3.3955e+04   4.49e-19
  3.5023e+04   4.31e-19
  3.6124e+04   4.14e-19
  3.7260e+04   3.98e-19
  3.8432e+04   3.82e-19
  3.9640e+04   3.67e-19
  4.0887e+04   3.52e-19
  4.2172e+04   3.38e-19
  4.3499e+04   3.24e-19
  4.4866e+04   3.11e-19
  4.6277e+04   2.99e-19
  4.7732e+04   2.86e-19
  4.9233e+04   2.75e-19
  5.0781e+04   2.64e-19
  5.2378e+04   2.53e-19
  5.4025e+04   2.43e-19
  5.5724e+04   2.33e-19
  5.7476e+04   2.23e-19
  5.9284e+04   2.14e-19
  6.1148e+04   2.05e-19
  6.3071e+04   1.97e-19
  6.5054e+04   1.89e-19
  6.7100e+04   1.81e-19
  6.9210e+04   1.73e-19
  7.1386e+04   1.66e-19
  7.3631e+04   1.59e-19
  7.5946e+04   1.52e-19
  7.8334e+04   1.46e-19
  8.0797e+04   1.40e-19
  8.3338e+04   1.34e-19
  8.5959e+04   1.28e-19
  8.8662e+04   1.23e-19
  9.1450e+04   1.18e-19
  9.4325e+04   1.12e-19
  9.7291e+04   1.08e-19
  1.0035e+05   1.03e-19
  1.0351e+05   9.85e-20
  1.0676e+05   9.42e-20
  1.1012e+05   9.01e-20
  1.1358e+05   8.61e-20
  1.1715e+05   8.23e-20
  1.2084e+05   7.86e-20
  1.2464e+05   7.51e-20
  1.2856e+05   7.17e-20
  1.3260e+05   6.85e-20
  1.3677e+05   6.54e-20
  1.4107e+05   6.24e-20
  1.4550e+05   5.95e-20
  1.5008e+05   5.67e-20
  1.5480e+05   5.41e-20
  1.5967e+05   5.15e-20
  1.6469e+05   4.90e-20
  1.6987e+05   4.67e-20
  1.7521e+05   4.44e-20
  1.8072e+05   4.22e-20
  1.8640e+05   4.01e-20
  1.9226e+05   3.81e-20
  1.9831e+05   3.62e-20
  2.0454e+05   3.44e-20
  2.1097e+05   3.26e-20
  2.1761e+05   3.09e-20
  2.2445e+05   2.93e-20
  2.3151e+05   2.78e-20
  2.3879e+05   2.64e-20
  2.4630e+05   2.50e-20
  2.5404e+05   2.37e-20
  2.6203e+05   2.25e-20
  2.7027e+05   2.13e-20
  2.7877e+05   2.02e-20
  2.8753e+05   1.91e-20
  2.9657e+05   1.81e-20
  3.0590e+05   1.71e-20
  3.1552e+05   1.62e-20
  3.2544e+05   1.53e-20
  3.3567e+05   1.45e-20
  3.4623e+05   1.37e-20
  3.5712e+05   1.29e-20
  3.6835e+05   1.22e-20
  3.7993e+05   1.15e-20
  3.9188e+05   1.08e-20
  4.0420e+05   1.02e-20
  4.1691e+05   9.64e-21
  4.3002e+05   9.07e-21
  4.4354e+05   8.53e-21
  4.5749e+05   8.03e-21
  4.7187e+05   7.55e-21
  4.8671e+05   7.09e-21
  5.0202e+05   6.66e-21
  5.1780e+05   6.25e-21
  5.3409e+05   5.86e-21
  5.5088e+05   5.49e-21
  5.6820e+05   5.14e-21
  5.8607e+05   4.82e-21
  6.0450e+05   4.51e-21
  6.2351e+05   4.21e-21
  6.4311e+05   3.94e-21
  6.6334e+05   3.68e-21
  6.8419e+05   3.43e-21
  7.0571e+05   3.20e-21
  7.2790e+05   2.98e-21
  7.5079e+05   2.78e-21
  7.7440e+05   2.58e-21
  7.9875e+05   2.40e-21
  8.2387e+05   2.23e-21
  8.4977e+05   2.07e-21
  8.7649e+05   1.92e-21
  9.0405e+05   1.78e-21
  9.3248e+05   1.65e-21
  9.6180e+05   1.52e-21
  9.9205e+05   1.40e-21
  1.0232e+06   1.30e-21
  1.0554e+06   1.20e-21
  1.0886e+06   1.10e-21
  1.1228e+06   1.02e-21
  1.1581e+06   9.37e-22
  1.1946e+06   8.61e-22
  1.2321e+06   7.90e-22
  1.2709e+06   7.25e-22
  1.3108e+06   6.65e-22
  1.3521e+06   6.09e-22
  1.3946e+06   5.56e-22
  1.4384e+06   5.09e-22
  1.4837e+06   4.65e-22
  1.5303e+06   4.23e-22
  1.5784e+06   3.84e-22
  1.6281e+06   3.50e-22
  1.6793e+06   3.18e-22
  1.7321e+06   2.88e-22
  1.7865e+06   2.60e-22
  1.8427e+06   2.37e-22
  1.9006e+06   2.14e-22
  1.9604e+06   1.92e-22
  2.0221e+06   1.74e-22
  2.0856e+06   1.57e-22
  2.1512e+06   1.41e-22
  2.2189e+06   1.26e-22
  2.2886e+06   1.14e-22
  2.3606e+06   1.02e-22
  2.4348e+06   9.13e-23
  2.5114e+06   8.13e-23
  2.5904e+06   7.31e-23
  2.6718e+06   6.53e-23
  2.7558e+06   5.79e-23
  2.8425e+06   5.15e-23
  2.9319e+06   4.60e-23
  3.0241e+06   4.08e-23
  3.1192e+06   3.58e-23
  3.2173e+06   3.18e-23
  3.3184e+06   2.83e-23
  3.4228e+06   2.49e-23
  3.5304e+06   2.17e-23
  3.6414e+06   1.93e-23
  3.7559e+06   1.70e-23
  3.8740e+06   1.49e-23
  3.9958e+06   1.30e-23
  4.1215e+06   1.15e-23
  4.2511e+06   1.01e-23
  4.3848e+06   8.73e-24
  4.5227e+06   7.64e-24
  4.6649e+06   6.72e-24
  4.8116e+06   5.85e-24
  4.9629e+06   5.03e-24
  5.1189e+06   4.43e-24
  5.2799e+06   3.87e-24
  5.4459e+06   3.35e-24
  5.6171e+06   2.88e-24
  5.7938e+06   2.54e-24
  5.9760e+06   2.21e-24
  6.1639e+06   1.90e-24
  6.3577e+06   1.65e-24
  6.5576e+06   1.46e-24
  6.7638e+06   1.27e-24
  6.9765e+06   1.09e-24
  7.1959e+06   9.62e-25
  7.4222e+06   8.50e-25
  7.6556e+06   7.44e-25
  7.8963e+06   6.44e-25
  8.1446e+06   5.75e-25
  8.4007e+06   5.10e-25
  8.6649e+06   4.49e-25
  8.9373e+06   3.96e-25
  9.2184e+06   3.58e-25
  9.5082e+06   3.21e-25
  9.8072e+06   2.86e-25
  1.0116e+07   2.58e-25
  1.0434e+07   2.35e-25
  1.0762e+07   2.13e-25
  1.1100e+07   1.93e-25
  1.1449e+07   1.75e-25
  1.1809e+07   1.59e-25
  1.2181e+07   1.43e-25
  1.2564e+07   1.29e-25
  1.2959e+07   1.16e-25
  1.3366e+07   1.04e-25
  1.3786e+07   9.21e-26
  1.4220e+07   8.22e-26
