#  E [GeV]   # per interaction  [GeV^{-1}]
  3.0000e+01   5.43e-01
  3.1141e+01   5.22e-01
  3.2326e+01   5.01e-01
  3.3556e+01   4.81e-01
  3.4832e+01   4.62e-01
  3.6157e+01   4.43e-01
  3.7533e+01   4.26e-01
  3.8961e+01   4.08e-01
  4.0443e+01   3.92e-01
  4.1982e+01   3.76e-01
  4.3579e+01   3.61e-01
  4.5237e+01   3.46e-01
  4.6958e+01   3.32e-01
  4.8744e+01   3.19e-01
  5.0598e+01   3.06e-01
  5.2523e+01   2.93e-01
  5.4521e+01   2.81e-01
  5.6596e+01   2.70e-01
  5.8749e+01   2.59e-01
  6.0984e+01   2.48e-01
  6.3304e+01   2.38e-01
  6.5712e+01   2.28e-01
  6.8212e+01   2.18e-01
  7.0807e+01   2.09e-01
  7.3500e+01   2.01e-01
  7.6297e+01   1.92e-01
  7.9199e+01   1.84e-01
  8.2212e+01   1.76e-01
  8.5340e+01   1.69e-01
  8.8586e+01   1.62e-01
  9.1956e+01   1.55e-01
  9.5455e+01   1.48e-01
  9.9086e+01   1.42e-01
  1.0286e+02   1.35e-01
  1.0677e+02   1.30e-01
  1.1083e+02   1.24e-01
  1.1505e+02   1.18e-01
  1.1942e+02   1.13e-01
  1.2397e+02   1.08e-01
  1.2868e+02   1.03e-01
  1.3358e+02   9.87e-02
  1.3866e+02   9.43e-02
  1.4394e+02   9.00e-02
  1.4941e+02   8.58e-02
  1.5509e+02   8.19e-02
  1.6100e+02   7.81e-02
  1.6712e+02   7.44e-02
  1.7348e+02   7.09e-02
  1.8008e+02   6.75e-02
  1.8693e+02   6.43e-02
  1.9404e+02   6.12e-02
  2.0142e+02   5.82e-02
  2.0908e+02   5.53e-02
  2.1704e+02   5.26e-02
  2.2529e+02   5.00e-02
  2.3387e+02   4.74e-02
  2.4276e+02   4.50e-02
  2.5200e+02   4.27e-02
  2.6158e+02   4.05e-02
  2.7154e+02   3.84e-02
  2.8187e+02   3.63e-02
  2.9259e+02   3.44e-02
  3.0372e+02   3.25e-02
  3.1527e+02   3.07e-02
  3.2727e+02   2.90e-02
  3.3972e+02   2.74e-02
  3.5264e+02   2.58e-02
  3.6606e+02   2.43e-02
  3.7998e+02   2.29e-02
  3.9444e+02   2.16e-02
  4.0945e+02   2.03e-02
  4.2502e+02   1.91e-02
  4.4119e+02   1.79e-02
  4.5798e+02   1.68e-02
  4.7540e+02   1.58e-02
  4.9348e+02   1.48e-02
  5.1226e+02   1.39e-02
  5.3175e+02   1.30e-02
  5.5198e+02   1.22e-02
  5.7297e+02   1.14e-02
  5.9477e+02   1.06e-02
  6.1740e+02   9.93e-03
  6.4089e+02   9.26e-03
  6.6527e+02   8.64e-03
  6.9058e+02   8.05e-03
  7.1685e+02   7.51e-03
  7.4412e+02   6.99e-03
  7.7243e+02   6.51e-03
  8.0181e+02   6.06e-03
  8.3232e+02   5.63e-03
  8.6398e+02   5.24e-03
  8.9685e+02   4.87e-03
  9.3097e+02   4.52e-03
  9.6638e+02   4.20e-03
  1.0031e+03   3.90e-03
  1.0413e+03   3.62e-03
  1.0809e+03   3.36e-03
  1.1220e+03   3.12e-03
  1.1647e+03   2.89e-03
  1.2090e+03   2.68e-03
  1.2550e+03   2.49e-03
  1.3028e+03   2.30e-03
  1.3523e+03   2.13e-03
  1.4038e+03   1.98e-03
  1.4572e+03   1.83e-03
  1.5126e+03   1.69e-03
  1.5702e+03   1.57e-03
  1.6299e+03   1.45e-03
  1.6919e+03   1.34e-03
  1.7563e+03   1.24e-03
  1.8231e+03   1.15e-03
  1.8925e+03   1.06e-03
  1.9645e+03   9.76e-04
  2.0392e+03   9.01e-04
  2.1168e+03   8.31e-04
  2.1973e+03   7.66e-04
  2.2809e+03   7.06e-04
  2.3677e+03   6.50e-04
  2.4577e+03   5.98e-04
  2.5512e+03   5.50e-04
  2.6483e+03   5.05e-04
  2.7490e+03   4.64e-04
  2.8536e+03   4.26e-04
  2.9622e+03   3.90e-04
  3.0749e+03   3.57e-04
  3.1918e+03   3.27e-04
  3.3133e+03   2.99e-04
  3.4393e+03   2.72e-04
  3.5702e+03   2.49e-04
  3.7060e+03   2.27e-04
  3.8470e+03   2.06e-04
  3.9933e+03   1.87e-04
  4.1452e+03   1.70e-04
  4.3029e+03   1.54e-04
  4.4666e+03   1.39e-04
  4.6366e+03   1.26e-04
  4.8129e+03   1.13e-04
  4.9960e+03   1.02e-04
  5.1861e+03   9.19e-05
  5.3834e+03   8.22e-05
  5.5882e+03   7.36e-05
  5.8008e+03   6.58e-05
  6.0215e+03   5.85e-05
  6.2506e+03   5.20e-05
  6.4883e+03   4.62e-05
  6.7352e+03   4.07e-05
  6.9914e+03   3.59e-05
  7.2574e+03   3.16e-05
  7.5335e+03   2.77e-05
  7.8201e+03   2.41e-05
  8.1176e+03   2.10e-05
  8.4264e+03   1.82e-05
  8.7470e+03   1.57e-05
  9.0797e+03   1.35e-05
  9.4251e+03   1.16e-05
  9.7837e+03   9.82e-06
  1.0156e+04   8.33e-06
  1.0542e+04   6.99e-06
  1.0943e+04   5.82e-06
  1.1360e+04   4.85e-06
  1.1792e+04   3.99e-06
  1.2240e+04   3.24e-06
  1.2706e+04   2.63e-06
  1.3189e+04   2.11e-06
  1.3691e+04   1.66e-06
  1.4212e+04   1.31e-06
  1.4753e+04   1.01e-06
  1.5314e+04   7.63e-07
  1.5897e+04   5.76e-07
  1.6501e+04   4.24e-07
  1.7129e+04   3.04e-07
  1.7781e+04   2.15e-07
  1.8457e+04   1.48e-07
  1.9159e+04   9.82e-08
  1.9888e+04   6.37e-08
  2.0645e+04   3.97e-08
  2.1430e+04   2.34e-08
  2.2245e+04   1.33e-08
  2.3092e+04   7.16e-09
  2.3970e+04   3.56e-09
  2.4882e+04   1.65e-09
  2.5829e+04   7.07e-10
  2.6811e+04   2.68e-10
  2.7831e+04   9.04e-11
  2.8890e+04   2.66e-11
  2.9989e+04   6.45e-12
  3.1130e+04   1.27e-12
  3.2314e+04   1.97e-13
  3.3544e+04   2.19e-14
  3.4820e+04   1.67e-15
  3.6144e+04   8.08e-17
  3.7519e+04   2.15e-18
  3.8947e+04   2.76e-20
  4.0428e+04   1.46e-22
  4.1966e+04   2.41e-25
  4.3563e+04   9.03e-29
  4.5220e+04   5.20e-33
  4.6941e+04   2.52e-38
  4.8726e+04   4.79e-45
  5.0580e+04   2.15e-48
