#  E [MeV]   Flux [# cm^{-2} s^{-1}  MeV^{-1}]
  3.0000e+04   1.21e-24
  3.1051e+04   1.16e-24
  3.2139e+04   1.11e-24
  3.3266e+04   1.06e-24
  3.4432e+04   1.01e-24
  3.5638e+04   9.71e-25
  3.6887e+04   9.29e-25
  3.8180e+04   8.89e-25
  3.9518e+04   8.51e-25
  4.0903e+04   8.14e-25
  4.2336e+04   7.78e-25
  4.3820e+04   7.45e-25
  4.5355e+04   7.12e-25
  4.6945e+04   6.81e-25
  4.8590e+04   6.51e-25
  5.0293e+04   6.22e-25
  5.2055e+04   5.95e-25
  5.3879e+04   5.68e-25
  5.5767e+04   5.43e-25
  5.7722e+04   5.19e-25
  5.9745e+04   4.96e-25
  6.1838e+04   4.73e-25
  6.4005e+04   4.52e-25
  6.6248e+04   4.32e-25
  6.8570e+04   4.12e-25
  7.0973e+04   3.94e-25
  7.3460e+04   3.76e-25
  7.6034e+04   3.59e-25
  7.8699e+04   3.42e-25
  8.1457e+04   3.27e-25
  8.4311e+04   3.12e-25
  8.7266e+04   2.97e-25
  9.0324e+04   2.83e-25
  9.3490e+04   2.70e-25
  9.6766e+04   2.58e-25
  1.0016e+05   2.46e-25
  1.0367e+05   2.34e-25
  1.0730e+05   2.23e-25
  1.1106e+05   2.13e-25
  1.1495e+05   2.03e-25
  1.1898e+05   1.93e-25
  1.2315e+05   1.84e-25
  1.2747e+05   1.75e-25
  1.3193e+05   1.67e-25
  1.3656e+05   1.59e-25
  1.4134e+05   1.51e-25
  1.4629e+05   1.44e-25
  1.5142e+05   1.37e-25
  1.5673e+05   1.30e-25
  1.6222e+05   1.24e-25
  1.6790e+05   1.18e-25
  1.7379e+05   1.12e-25
  1.7988e+05   1.06e-25
  1.8618e+05   1.01e-25
  1.9271e+05   9.61e-26
  1.9946e+05   9.12e-26
  2.0645e+05   8.65e-26
  2.1369e+05   8.21e-26
  2.2117e+05   7.79e-26
  2.2892e+05   7.38e-26
  2.3695e+05   6.99e-26
  2.4525e+05   6.62e-26
  2.5385e+05   6.27e-26
  2.6274e+05   5.93e-26
  2.7195e+05   5.61e-26
  2.8148e+05   5.30e-26
  2.9134e+05   5.00e-26
  3.0155e+05   4.72e-26
  3.1212e+05   4.45e-26
  3.2306e+05   4.20e-26
  3.3438e+05   3.95e-26
  3.4610e+05   3.72e-26
  3.5823e+05   3.50e-26
  3.7078e+05   3.29e-26
  3.8377e+05   3.09e-26
  3.9722e+05   2.90e-26
  4.1114e+05   2.72e-26
  4.2555e+05   2.55e-26
  4.4046e+05   2.39e-26
  4.5590e+05   2.24e-26
  4.7188e+05   2.09e-26
  4.8841e+05   1.96e-26
  5.0553e+05   1.83e-26
  5.2324e+05   1.71e-26
  5.4158e+05   1.60e-26
  5.6056e+05   1.50e-26
  5.8020e+05   1.40e-26
  6.0054e+05   1.30e-26
  6.2158e+05   1.22e-26
  6.4337e+05   1.13e-26
  6.6591e+05   1.06e-26
  6.8925e+05   9.83e-27
  7.1340e+05   9.15e-27
  7.3840e+05   8.50e-27
  7.6428e+05   7.90e-27
  7.9106e+05   7.33e-27
  8.1878e+05   6.81e-27
  8.4748e+05   6.31e-27
  8.7718e+05   5.85e-27
  9.0792e+05   5.42e-27
  9.3973e+05   5.02e-27
  9.7267e+05   4.64e-27
  1.0068e+06   4.30e-27
  1.0420e+06   3.97e-27
  1.0785e+06   3.67e-27
  1.1163e+06   3.39e-27
  1.1555e+06   3.13e-27
  1.1960e+06   2.88e-27
  1.2379e+06   2.66e-27
  1.2813e+06   2.45e-27
  1.3262e+06   2.26e-27
  1.3726e+06   2.07e-27
  1.4207e+06   1.91e-27
  1.4705e+06   1.75e-27
  1.5220e+06   1.61e-27
  1.5754e+06   1.48e-27
  1.6306e+06   1.35e-27
  1.6877e+06   1.24e-27
  1.7469e+06   1.13e-27
  1.8081e+06   1.04e-27
  1.8715e+06   9.46e-28
  1.9370e+06   8.62e-28
  2.0049e+06   7.87e-28
  2.0752e+06   7.17e-28
  2.1479e+06   6.51e-28
  2.2232e+06   5.92e-28
  2.3011e+06   5.38e-28
  2.3817e+06   4.88e-28
  2.4652e+06   4.41e-28
  2.5516e+06   4.00e-28
  2.6410e+06   3.61e-28
  2.7336e+06   3.25e-28
  2.8294e+06   2.93e-28
  2.9285e+06   2.64e-28
  3.0311e+06   2.36e-28
  3.1374e+06   2.12e-28
  3.2473e+06   1.90e-28
  3.3611e+06   1.70e-28
  3.4789e+06   1.51e-28
  3.6008e+06   1.35e-28
  3.7270e+06   1.20e-28
  3.8576e+06   1.06e-28
  3.9928e+06   9.41e-29
  4.1327e+06   8.34e-29
  4.2775e+06   7.33e-29
  4.4274e+06   6.46e-29
  4.5826e+06   5.70e-29
  4.7432e+06   4.99e-29
  4.9094e+06   4.35e-29
  5.0815e+06   3.82e-29
  5.2595e+06   3.33e-29
  5.4438e+06   2.88e-29
  5.6346e+06   2.51e-29
  5.8321e+06   2.18e-29
  6.0365e+06   1.87e-29
  6.2480e+06   1.61e-29
  6.4670e+06   1.39e-29
  6.6936e+06   1.19e-29
  6.9282e+06   1.01e-29
  7.1709e+06   8.65e-30
  7.4222e+06   7.36e-30
  7.6823e+06   6.16e-30
  7.9516e+06   5.26e-30
  8.2302e+06   4.45e-30
  8.5186e+06   3.71e-30
  8.8172e+06   3.11e-30
  9.1262e+06   2.61e-30
  9.4460e+06   2.17e-30
  9.7770e+06   1.78e-30
  1.0120e+07   1.49e-30
  1.0474e+07   1.23e-30
  1.0841e+07   9.95e-31
  1.1221e+07   8.22e-31
  1.1614e+07   6.74e-31
  1.2022e+07   5.42e-31
  1.2443e+07   4.38e-31
  1.2879e+07   3.56e-31
  1.3330e+07   2.85e-31
  1.3797e+07   2.25e-31
  1.4281e+07   1.81e-31
  1.4781e+07   1.44e-31
  1.5299e+07   1.12e-31
  1.5835e+07   8.77e-32
  1.6390e+07   6.82e-32
  1.6965e+07   5.19e-32
  1.7559e+07   3.93e-32
  1.8175e+07   2.97e-32
  1.8812e+07   2.19e-32
  1.9471e+07   1.58e-32
  2.0153e+07   1.13e-32
  2.0859e+07   7.79e-33
  2.1590e+07   5.20e-33
  2.2347e+07   3.37e-33
  2.3130e+07   2.10e-33
  2.3941e+07   1.24e-33
  2.4780e+07   6.88e-34
  2.5648e+07   3.58e-34
  2.6547e+07   1.72e-34
  2.7477e+07   7.54e-35
  2.8440e+07   3.04e-35
