#  E [GeV]   # per interaction  [GeV^{-1}]
  3.0000e+01   4.60e-01
  3.0782e+01   4.44e-01
  3.1585e+01   4.29e-01
  3.2409e+01   4.14e-01
  3.3255e+01   4.00e-01
  3.4122e+01   3.86e-01
  3.5012e+01   3.72e-01
  3.5925e+01   3.59e-01
  3.6862e+01   3.46e-01
  3.7824e+01   3.34e-01
  3.8810e+01   3.22e-01
  3.9822e+01   3.11e-01
  4.0861e+01   3.00e-01
  4.1927e+01   2.89e-01
  4.3021e+01   2.78e-01
  4.4143e+01   2.68e-01
  4.5294e+01   2.58e-01
  4.6475e+01   2.49e-01
  4.7688e+01   2.40e-01
  4.8931e+01   2.31e-01
  5.0208e+01   2.22e-01
  5.1517e+01   2.14e-01
  5.2861e+01   2.05e-01
  5.4240e+01   1.98e-01
  5.5654e+01   1.90e-01
  5.7106e+01   1.82e-01
  5.8596e+01   1.75e-01
  6.0124e+01   1.68e-01
  6.1692e+01   1.61e-01
  6.3301e+01   1.55e-01
  6.4952e+01   1.49e-01
  6.6647e+01   1.42e-01
  6.8385e+01   1.37e-01
  7.0169e+01   1.31e-01
  7.1999e+01   1.25e-01
  7.3877e+01   1.20e-01
  7.5804e+01   1.15e-01
  7.7781e+01   1.10e-01
  7.9810e+01   1.06e-01
  8.1891e+01   1.01e-01
  8.4027e+01   9.67e-02
  8.6219e+01   9.26e-02
  8.8468e+01   8.86e-02
  9.0775e+01   8.48e-02
  9.3143e+01   8.11e-02
  9.5572e+01   7.76e-02
  9.8065e+01   7.43e-02
  1.0062e+02   7.10e-02
  1.0325e+02   6.79e-02
  1.0594e+02   6.49e-02
  1.0870e+02   6.20e-02
  1.1154e+02   5.93e-02
  1.1445e+02   5.66e-02
  1.1743e+02   5.40e-02
  1.2050e+02   5.15e-02
  1.2364e+02   4.91e-02
  1.2686e+02   4.69e-02
  1.3017e+02   4.46e-02
  1.3357e+02   4.25e-02
  1.3705e+02   4.05e-02
  1.4063e+02   3.86e-02
  1.4429e+02   3.67e-02
  1.4806e+02   3.49e-02
  1.5192e+02   3.32e-02
  1.5588e+02   3.15e-02
  1.5995e+02   2.99e-02
  1.6412e+02   2.84e-02
  1.6840e+02   2.70e-02
  1.7279e+02   2.56e-02
  1.7730e+02   2.43e-02
  1.8193e+02   2.30e-02
  1.8667e+02   2.18e-02
  1.9154e+02   2.06e-02
  1.9654e+02   1.95e-02
  2.0166e+02   1.84e-02
  2.0692e+02   1.74e-02
  2.1232e+02   1.64e-02
  2.1786e+02   1.55e-02
  2.2354e+02   1.47e-02
  2.2937e+02   1.38e-02
  2.3535e+02   1.30e-02
  2.4149e+02   1.23e-02
  2.4779e+02   1.15e-02
  2.5425e+02   1.08e-02
  2.6088e+02   1.02e-02
  2.6769e+02   9.54e-03
  2.7467e+02   8.96e-03
  2.8184e+02   8.40e-03
  2.8919e+02   7.86e-03
  2.9673e+02   7.35e-03
  3.0447e+02   6.88e-03
  3.1241e+02   6.43e-03
  3.2056e+02   6.00e-03
  3.2892e+02   5.59e-03
  3.3750e+02   5.21e-03
  3.4630e+02   4.86e-03
  3.5533e+02   4.52e-03
  3.6460e+02   4.20e-03
  3.7411e+02   3.89e-03
  3.8387e+02   3.62e-03
  3.9388e+02   3.35e-03
  4.0416e+02   3.11e-03
  4.1470e+02   2.87e-03
  4.2551e+02   2.65e-03
  4.3661e+02   2.45e-03
  4.4800e+02   2.26e-03
  4.5969e+02   2.08e-03
  4.7168e+02   1.91e-03
  4.8398e+02   1.76e-03
  4.9660e+02   1.62e-03
  5.0956e+02   1.49e-03
  5.2285e+02   1.36e-03
  5.3648e+02   1.24e-03
  5.5048e+02   1.14e-03
  5.6483e+02   1.04e-03
  5.7957e+02   9.50e-04
  5.9468e+02   8.63e-04
  6.1020e+02   7.89e-04
  6.2611e+02   7.20e-04
  6.4244e+02   6.54e-04
  6.5920e+02   5.92e-04
  6.7639e+02   5.38e-04
  6.9403e+02   4.89e-04
  7.1214e+02   4.43e-04
  7.3071e+02   4.00e-04
  7.4977e+02   3.60e-04
  7.6933e+02   3.27e-04
  7.8939e+02   2.96e-04
  8.0998e+02   2.67e-04
  8.3111e+02   2.39e-04
  8.5279e+02   2.16e-04
  8.7503e+02   1.95e-04
  8.9785e+02   1.75e-04
  9.2127e+02   1.57e-04
  9.4530e+02   1.40e-04
  9.6996e+02   1.27e-04
  9.9526e+02   1.14e-04
  1.0212e+03   1.02e-04
  1.0479e+03   9.01e-05
  1.0752e+03   8.08e-05
  1.1032e+03   7.25e-05
  1.1320e+03   6.47e-05
  1.1615e+03   5.74e-05
  1.1918e+03   5.09e-05
  1.2229e+03   4.56e-05
  1.2548e+03   4.07e-05
  1.2875e+03   3.61e-05
  1.3211e+03   3.18e-05
  1.3556e+03   2.84e-05
  1.3909e+03   2.54e-05
  1.4272e+03   2.25e-05
  1.4644e+03   1.98e-05
  1.5026e+03   1.75e-05
  1.5418e+03   1.56e-05
  1.5820e+03   1.39e-05
  1.6233e+03   1.22e-05
  1.6657e+03   1.07e-05
  1.7091e+03   9.50e-06
  1.7537e+03   8.45e-06
  1.7994e+03   7.46e-06
  1.8464e+03   6.53e-06
  1.8945e+03   5.72e-06
  1.9439e+03   5.10e-06
  1.9946e+03   4.52e-06
  2.0467e+03   3.97e-06
  2.1000e+03   3.44e-06
  2.1548e+03   3.07e-06
  2.2110e+03   2.73e-06
  2.2687e+03   2.41e-06
  2.3279e+03   2.11e-06
  2.3886e+03   1.85e-06
  2.4509e+03   1.66e-06
  2.5148e+03   1.48e-06
  2.5804e+03   1.30e-06
  2.6477e+03   1.14e-06
  2.7168e+03   1.02e-06
  2.7876e+03   9.18e-07
  2.8603e+03   8.18e-07
  2.9349e+03   7.24e-07
  3.0115e+03   6.47e-07
  3.0900e+03   5.89e-07
  3.1706e+03   5.34e-07
  3.2533e+03   4.81e-07
  3.3382e+03   4.32e-07
  3.4253e+03   3.97e-07
  3.5146e+03   3.64e-07
  3.6063e+03   3.32e-07
  3.7003e+03   3.02e-07
  3.7969e+03   2.76e-07
  3.8959e+03   2.53e-07
  3.9975e+03   2.31e-07
  4.1018e+03   2.10e-07
  4.2088e+03   1.90e-07
  4.3185e+03   1.73e-07
  4.4312e+03   1.57e-07
  4.5467e+03   1.42e-07
  4.6653e+03   1.27e-07
  4.7870e+03   1.16e-07
  4.9119e+03   1.06e-07
  5.0400e+03   9.74e-08
