#  E [MeV]   Flux [# cm^{-2} s^{-1}  MeV^{-1}]
  3.0000e+04   2.23e-25
  3.1232e+04   2.13e-25
  3.2514e+04   2.03e-25
  3.3849e+04   1.94e-25
  3.5238e+04   1.85e-25
  3.6685e+04   1.76e-25
  3.8191e+04   1.68e-25
  3.9759e+04   1.60e-25
  4.1391e+04   1.52e-25
  4.3090e+04   1.45e-25
  4.4859e+04   1.38e-25
  4.6701e+04   1.32e-25
  4.8618e+04   1.25e-25
  5.0614e+04   1.19e-25
  5.2692e+04   1.14e-25
  5.4855e+04   1.08e-25
  5.7107e+04   1.03e-25
  5.9451e+04   9.78e-26
  6.1892e+04   9.30e-26
  6.4433e+04   8.85e-26
  6.7078e+04   8.41e-26
  6.9832e+04   8.00e-26
  7.2699e+04   7.60e-26
  7.5683e+04   7.22e-26
  7.8790e+04   6.86e-26
  8.2025e+04   6.51e-26
  8.5392e+04   6.19e-26
  8.8898e+04   5.87e-26
  9.2547e+04   5.57e-26
  9.6347e+04   5.29e-26
  1.0030e+05   5.02e-26
  1.0442e+05   4.76e-26
  1.0871e+05   4.52e-26
  1.1317e+05   4.28e-26
  1.1782e+05   4.06e-26
  1.2265e+05   3.85e-26
  1.2769e+05   3.64e-26
  1.3293e+05   3.45e-26
  1.3839e+05   3.27e-26
  1.4407e+05   3.10e-26
  1.4998e+05   2.93e-26
  1.5614e+05   2.77e-26
  1.6255e+05   2.62e-26
  1.6922e+05   2.48e-26
  1.7617e+05   2.34e-26
  1.8340e+05   2.21e-26
  1.9093e+05   2.09e-26
  1.9877e+05   1.97e-26
  2.0693e+05   1.86e-26
  2.1543e+05   1.76e-26
  2.2427e+05   1.66e-26
  2.3348e+05   1.56e-26
  2.4306e+05   1.47e-26
  2.5304e+05   1.39e-26
  2.6343e+05   1.30e-26
  2.7424e+05   1.23e-26
  2.8550e+05   1.15e-26
  2.9722e+05   1.08e-26
  3.0942e+05   1.02e-26
  3.2213e+05   9.56e-27
  3.3535e+05   8.97e-27
  3.4912e+05   8.41e-27
  3.6345e+05   7.88e-27
  3.7837e+05   7.37e-27
  3.9390e+05   6.90e-27
  4.1008e+05   6.45e-27
  4.2691e+05   6.03e-27
  4.4444e+05   5.63e-27
  4.6268e+05   5.26e-27
  4.8168e+05   4.90e-27
  5.0145e+05   4.57e-27
  5.2204e+05   4.26e-27
  5.4347e+05   3.96e-27
  5.6578e+05   3.68e-27
  5.8901e+05   3.42e-27
  6.1319e+05   3.18e-27
  6.3836e+05   2.95e-27
  6.6457e+05   2.74e-27
  6.9185e+05   2.54e-27
  7.2025e+05   2.35e-27
  7.4982e+05   2.18e-27
  7.8061e+05   2.02e-27
  8.1265e+05   1.87e-27
  8.4601e+05   1.73e-27
  8.8075e+05   1.60e-27
  9.1690e+05   1.47e-27
  9.5455e+05   1.36e-27
  9.9373e+05   1.26e-27
  1.0345e+06   1.16e-27
  1.0770e+06   1.07e-27
  1.1212e+06   9.89e-28
  1.1672e+06   9.13e-28
  1.2152e+06   8.41e-28
  1.2650e+06   7.76e-28
  1.3170e+06   7.16e-28
  1.3711e+06   6.59e-28
  1.4273e+06   6.08e-28
  1.4859e+06   5.60e-28
  1.5469e+06   5.15e-28
  1.6104e+06   4.75e-28
  1.6766e+06   4.37e-28
  1.7454e+06   4.02e-28
  1.8170e+06   3.70e-28
  1.8916e+06   3.40e-28
  1.9693e+06   3.12e-28
  2.0501e+06   2.87e-28
  2.1343e+06   2.63e-28
  2.2219e+06   2.41e-28
  2.3131e+06   2.21e-28
  2.4081e+06   2.02e-28
  2.5070e+06   1.85e-28
  2.6099e+06   1.69e-28
  2.7170e+06   1.54e-28
  2.8286e+06   1.41e-28
  2.9447e+06   1.28e-28
  3.0656e+06   1.17e-28
  3.1914e+06   1.06e-28
  3.3225e+06   9.64e-29
  3.4589e+06   8.73e-29
  3.6008e+06   7.91e-29
  3.7487e+06   7.15e-29
  3.9026e+06   6.45e-29
  4.0628e+06   5.83e-29
  4.2296e+06   5.24e-29
  4.4032e+06   4.70e-29
  4.5840e+06   4.22e-29
  4.7722e+06   3.77e-29
  4.9681e+06   3.36e-29
  5.1720e+06   3.00e-29
  5.3844e+06   2.66e-29
  5.6054e+06   2.36e-29
  5.8355e+06   2.08e-29
  6.0751e+06   1.83e-29
  6.3245e+06   1.61e-29
  6.5841e+06   1.41e-29
  6.8544e+06   1.23e-29
  7.1358e+06   1.08e-29
  7.4288e+06   9.34e-30
  7.7338e+06   8.05e-30
  8.0513e+06   6.95e-30
  8.3818e+06   5.96e-30
  8.7259e+06   5.07e-30
  9.0841e+06   4.32e-30
  9.4571e+06   3.64e-30
  9.8453e+06   3.05e-30
  1.0249e+07   2.55e-30
  1.0670e+07   2.11e-30
  1.1108e+07   1.74e-30
  1.1564e+07   1.42e-30
  1.2039e+07   1.15e-30
  1.2533e+07   9.22e-31
  1.3048e+07   7.34e-31
  1.3584e+07   5.72e-31
  1.4141e+07   4.46e-31
  1.4722e+07   3.41e-31
  1.5326e+07   2.55e-31
  1.5955e+07   1.90e-31
  1.6610e+07   1.37e-31
  1.7292e+07   9.65e-32
  1.8002e+07   6.71e-32
  1.8741e+07   4.49e-32
  1.9511e+07   2.89e-32
  2.0312e+07   1.82e-32
  2.1145e+07   1.08e-32
  2.2013e+07   6.10e-33
  2.2917e+07   3.27e-33
  2.3858e+07   1.62e-33
  2.4837e+07   7.38e-34
  2.5857e+07   3.06e-34
  2.6919e+07   1.11e-34
  2.8024e+07   3.54e-35
  2.9174e+07   9.46e-36
  3.0372e+07   2.02e-36
  3.1619e+07   3.39e-37
  3.2917e+07   4.11e-38
  3.4268e+07   3.33e-39
  3.5675e+07   1.68e-40
  3.7140e+07   4.52e-42
  3.8664e+07   5.51e-44
  4.0252e+07   2.50e-46
  4.1904e+07   3.10e-49
  4.3624e+07   7.11e-53
  4.5415e+07   1.82e-57
  4.7280e+07   2.50e-63
  4.9221e+07   6.91e-71
  5.1241e+07   4.40e-72
  5.3345e+07   3.98e-72
  5.5535e+07   3.62e-72
  5.7815e+07   3.31e-72
  6.0188e+07   3.02e-72
  6.2659e+07   2.76e-72
  6.5232e+07   2.53e-72
  6.7910e+07   2.31e-72
  7.0698e+07   2.11e-72
  7.3600e+07   1.92e-72
  7.6621e+07   1.74e-72
  7.9767e+07   1.56e-72
  8.3042e+07   1.39e-72
  8.6451e+07   1.24e-72
  9.0000e+07   1.13e-72
