#  E [GeV]   # per interaction  [GeV^{-1}]
  3.0000e+01   1.13e+00
  3.1141e+01   1.08e+00
  3.2326e+01   1.03e+00
  3.3556e+01   9.86e-01
  3.4832e+01   9.42e-01
  3.6157e+01   9.00e-01
  3.7533e+01   8.60e-01
  3.8961e+01   8.22e-01
  4.0443e+01   7.84e-01
  4.1982e+01   7.49e-01
  4.3579e+01   7.15e-01
  4.5237e+01   6.82e-01
  4.6958e+01   6.51e-01
  4.8744e+01   6.21e-01
  5.0598e+01   5.93e-01
  5.2523e+01   5.65e-01
  5.4521e+01   5.39e-01
  5.6596e+01   5.14e-01
  5.8749e+01   4.90e-01
  6.0984e+01   4.67e-01
  6.3304e+01   4.45e-01
  6.5712e+01   4.24e-01
  6.8212e+01   4.04e-01
  7.0807e+01   3.84e-01
  7.3500e+01   3.66e-01
  7.6297e+01   3.48e-01
  7.9199e+01   3.32e-01
  8.2212e+01   3.15e-01
  8.5340e+01   3.00e-01
  8.8586e+01   2.85e-01
  9.1956e+01   2.71e-01
  9.5455e+01   2.58e-01
  9.9086e+01   2.45e-01
  1.0286e+02   2.33e-01
  1.0677e+02   2.21e-01
  1.1083e+02   2.10e-01
  1.1505e+02   1.99e-01
  1.1942e+02   1.89e-01
  1.2397e+02   1.80e-01
  1.2868e+02   1.70e-01
  1.3358e+02   1.62e-01
  1.3866e+02   1.53e-01
  1.4394e+02   1.45e-01
  1.4941e+02   1.37e-01
  1.5509e+02   1.30e-01
  1.6100e+02   1.23e-01
  1.6712e+02   1.16e-01
  1.7348e+02   1.10e-01
  1.8008e+02   1.04e-01
  1.8693e+02   9.83e-02
  1.9404e+02   9.28e-02
  2.0142e+02   8.76e-02
  2.0908e+02   8.26e-02
  2.1704e+02   7.79e-02
  2.2529e+02   7.34e-02
  2.3387e+02   6.91e-02
  2.4276e+02   6.50e-02
  2.5200e+02   6.11e-02
  2.6158e+02   5.74e-02
  2.7154e+02   5.39e-02
  2.8187e+02   5.06e-02
  2.9259e+02   4.74e-02
  3.0372e+02   4.44e-02
  3.1527e+02   4.15e-02
  3.2727e+02   3.88e-02
  3.3972e+02   3.63e-02
  3.5264e+02   3.38e-02
  3.6606e+02   3.16e-02
  3.7998e+02   2.94e-02
  3.9444e+02   2.73e-02
  4.0945e+02   2.54e-02
  4.2502e+02   2.36e-02
  4.4119e+02   2.19e-02
  4.5798e+02   2.03e-02
  4.7540e+02   1.88e-02
  4.9348e+02   1.74e-02
  5.1226e+02   1.61e-02
  5.3175e+02   1.49e-02
  5.5198e+02   1.37e-02
  5.7297e+02   1.27e-02
  5.9477e+02   1.17e-02
  6.1740e+02   1.07e-02
  6.4089e+02   9.88e-03
  6.6527e+02   9.09e-03
  6.9058e+02   8.35e-03
  7.1685e+02   7.67e-03
  7.4412e+02   7.04e-03
  7.7243e+02   6.46e-03
  8.0181e+02   5.93e-03
  8.3232e+02   5.43e-03
  8.6398e+02   4.98e-03
  8.9685e+02   4.56e-03
  9.3097e+02   4.18e-03
  9.6638e+02   3.82e-03
  1.0031e+03   3.50e-03
  1.0413e+03   3.20e-03
  1.0809e+03   2.93e-03
  1.1220e+03   2.68e-03
  1.1647e+03   2.45e-03
  1.2090e+03   2.24e-03
  1.2550e+03   2.05e-03
  1.3028e+03   1.87e-03
  1.3523e+03   1.71e-03
  1.4038e+03   1.56e-03
  1.4572e+03   1.42e-03
  1.5126e+03   1.30e-03
  1.5702e+03   1.18e-03
  1.6299e+03   1.08e-03
  1.6919e+03   9.82e-04
  1.7563e+03   8.96e-04
  1.8231e+03   8.16e-04
  1.8925e+03   7.42e-04
  1.9645e+03   6.76e-04
  2.0392e+03   6.14e-04
  2.1168e+03   5.57e-04
  2.1973e+03   5.06e-04
  2.2809e+03   4.59e-04
  2.3677e+03   4.16e-04
  2.4577e+03   3.77e-04
  2.5512e+03   3.41e-04
  2.6483e+03   3.07e-04
  2.7490e+03   2.77e-04
  2.8536e+03   2.50e-04
  2.9622e+03   2.24e-04
  3.0749e+03   2.02e-04
  3.1918e+03   1.81e-04
  3.3133e+03   1.62e-04
  3.4393e+03   1.45e-04
  3.5702e+03   1.29e-04
  3.7060e+03   1.15e-04
  3.8470e+03   1.02e-04
  3.9933e+03   9.08e-05
  4.1452e+03   8.02e-05
  4.3029e+03   7.09e-05
  4.4666e+03   6.26e-05
  4.6366e+03   5.49e-05
  4.8129e+03   4.81e-05
  4.9960e+03   4.21e-05
  5.1861e+03   3.66e-05
  5.3834e+03   3.17e-05
  5.5882e+03   2.76e-05
  5.8008e+03   2.37e-05
  6.0215e+03   2.04e-05
  6.2506e+03   1.75e-05
  6.4883e+03   1.49e-05
  6.7352e+03   1.26e-05
  6.9914e+03   1.07e-05
  7.2574e+03   9.02e-06
  7.5335e+03   7.52e-06
  7.8201e+03   6.30e-06
  8.1176e+03   5.23e-06
  8.4264e+03   4.27e-06
  8.7470e+03   3.53e-06
  9.0797e+03   2.87e-06
  9.4251e+03   2.30e-06
  9.7837e+03   1.85e-06
  1.0156e+04   1.47e-06
  1.0542e+04   1.15e-06
  1.0943e+04   8.99e-07
  1.1360e+04   6.94e-07
  1.1792e+04   5.24e-07
  1.2240e+04   3.96e-07
  1.2706e+04   2.94e-07
  1.3189e+04   2.13e-07
  1.3691e+04   1.54e-07
  1.4212e+04   1.09e-07
  1.4753e+04   7.43e-08
  1.5314e+04   5.01e-08
  1.5897e+04   3.30e-08
  1.6501e+04   2.09e-08
  1.7129e+04   1.29e-08
  1.7781e+04   7.67e-09
  1.8457e+04   4.33e-09
  1.9159e+04   2.34e-09
  1.9888e+04   1.20e-09
  2.0645e+04   5.76e-10
  2.1430e+04   2.56e-10
  2.2245e+04   1.05e-10
  2.3092e+04   3.88e-11
  2.3970e+04   1.27e-11
  2.4882e+04   3.67e-12
  2.5829e+04   8.94e-13
  2.6811e+04   1.79e-13
  2.7831e+04   2.88e-14
  2.8890e+04   3.53e-15
  2.9989e+04   3.11e-16
  3.1130e+04   1.87e-17
  3.2314e+04   7.04e-19
  3.3544e+04   1.49e-20
  3.4820e+04   1.59e-22
  3.6144e+04   7.19e-25
  3.7519e+04   1.13e-27
  3.8947e+04   4.80e-31
  4.0428e+04   3.94e-35
  4.1966e+04   4.08e-40
  4.3563e+04   3.06e-46
  4.5220e+04   1.46e-47
  4.6941e+04   1.31e-47
  4.8726e+04   1.20e-47
  5.0580e+04   1.10e-47
