#  E [MeV]   Flux [# cm^{-2} s^{-1}  MeV^{-1}]
  3.0000e+04   3.55e-25
  3.1141e+04   3.39e-25
  3.2326e+04   3.24e-25
  3.3556e+04   3.10e-25
  3.4832e+04   2.96e-25
  3.6157e+04   2.83e-25
  3.7533e+04   2.70e-25
  3.8961e+04   2.58e-25
  4.0443e+04   2.46e-25
  4.1982e+04   2.35e-25
  4.3579e+04   2.25e-25
  4.5237e+04   2.14e-25
  4.6958e+04   2.04e-25
  4.8744e+04   1.95e-25
  5.0598e+04   1.86e-25
  5.2523e+04   1.77e-25
  5.4521e+04   1.69e-25
  5.6596e+04   1.61e-25
  5.8749e+04   1.54e-25
  6.0984e+04   1.47e-25
  6.3304e+04   1.40e-25
  6.5712e+04   1.33e-25
  6.8212e+04   1.27e-25
  7.0807e+04   1.21e-25
  7.3500e+04   1.15e-25
  7.6297e+04   1.09e-25
  7.9199e+04   1.04e-25
  8.2212e+04   9.91e-26
  8.5340e+04   9.42e-26
  8.8586e+04   8.96e-26
  9.1956e+04   8.52e-26
  9.5455e+04   8.10e-26
  9.9086e+04   7.70e-26
  1.0286e+05   7.31e-26
  1.0677e+05   6.95e-26
  1.1083e+05   6.60e-26
  1.1505e+05   6.26e-26
  1.1942e+05   5.95e-26
  1.2397e+05   5.64e-26
  1.2868e+05   5.35e-26
  1.3358e+05   5.07e-26
  1.3866e+05   4.81e-26
  1.4394e+05   4.56e-26
  1.4941e+05   4.32e-26
  1.5509e+05   4.09e-26
  1.6100e+05   3.87e-26
  1.6712e+05   3.66e-26
  1.7348e+05   3.46e-26
  1.8008e+05   3.27e-26
  1.8693e+05   3.09e-26
  1.9404e+05   2.92e-26
  2.0142e+05   2.75e-26
  2.0908e+05   2.60e-26
  2.1704e+05   2.45e-26
  2.2529e+05   2.30e-26
  2.3387e+05   2.17e-26
  2.4276e+05   2.04e-26
  2.5200e+05   1.92e-26
  2.6158e+05   1.80e-26
  2.7154e+05   1.69e-26
  2.8187e+05   1.59e-26
  2.9259e+05   1.49e-26
  3.0372e+05   1.39e-26
  3.1527e+05   1.30e-26
  3.2727e+05   1.22e-26
  3.3972e+05   1.14e-26
  3.5264e+05   1.06e-26
  3.6606e+05   9.91e-27
  3.7998e+05   9.23e-27
  3.9444e+05   8.59e-27
  4.0945e+05   7.98e-27
  4.2502e+05   7.41e-27
  4.4119e+05   6.88e-27
  4.5798e+05   6.38e-27
  4.7540e+05   5.91e-27
  4.9348e+05   5.47e-27
  5.1226e+05   5.05e-27
  5.3175e+05   4.67e-27
  5.5198e+05   4.31e-27
  5.7297e+05   3.97e-27
  5.9477e+05   3.66e-27
  6.1740e+05   3.37e-27
  6.4089e+05   3.10e-27
  6.6527e+05   2.85e-27
  6.9058e+05   2.62e-27
  7.1685e+05   2.41e-27
  7.4412e+05   2.21e-27
  7.7243e+05   2.03e-27
  8.0181e+05   1.86e-27
  8.3232e+05   1.71e-27
  8.6398e+05   1.56e-27
  8.9685e+05   1.43e-27
  9.3097e+05   1.31e-27
  9.6638e+05   1.20e-27
  1.0031e+06   1.10e-27
  1.0413e+06   1.01e-27
  1.0809e+06   9.20e-28
  1.1220e+06   8.42e-28
  1.1647e+06   7.69e-28
  1.2090e+06   7.03e-28
  1.2550e+06   6.43e-28
  1.3028e+06   5.87e-28
  1.3523e+06   5.36e-28
  1.4038e+06   4.89e-28
  1.4572e+06   4.46e-28
  1.5126e+06   4.07e-28
  1.5702e+06   3.72e-28
  1.6299e+06   3.39e-28
  1.6919e+06   3.09e-28
  1.7563e+06   2.81e-28
  1.8231e+06   2.56e-28
  1.8925e+06   2.33e-28
  1.9645e+06   2.12e-28
  2.0392e+06   1.93e-28
  2.1168e+06   1.75e-28
  2.1973e+06   1.59e-28
  2.2809e+06   1.44e-28
  2.3677e+06   1.31e-28
  2.4577e+06   1.18e-28
  2.5512e+06   1.07e-28
  2.6483e+06   9.64e-29
  2.7490e+06   8.71e-29
  2.8536e+06   7.84e-29
  2.9622e+06   7.04e-29
  3.0749e+06   6.33e-29
  3.1918e+06   5.68e-29
  3.3133e+06   5.08e-29
  3.4393e+06   4.54e-29
  3.5702e+06   4.06e-29
  3.7060e+06   3.61e-29
  3.8470e+06   3.21e-29
  3.9933e+06   2.85e-29
  4.1452e+06   2.52e-29
  4.3029e+06   2.23e-29
  4.4666e+06   1.96e-29
  4.6366e+06   1.72e-29
  4.8129e+06   1.51e-29
  4.9960e+06   1.32e-29
  5.1861e+06   1.15e-29
  5.3834e+06   9.97e-30
  5.5882e+06   8.66e-30
  5.8008e+06   7.46e-30
  6.0215e+06   6.39e-30
  6.2506e+06   5.50e-30
  6.4883e+06   4.68e-30
  6.7352e+06   3.96e-30
  6.9914e+06   3.37e-30
  7.2574e+06   2.83e-30
  7.5335e+06   2.36e-30
  7.8201e+06   1.98e-30
  8.1176e+06   1.64e-30
  8.4264e+06   1.34e-30
  8.7470e+06   1.11e-30
  9.0797e+06   9.01e-31
  9.4251e+06   7.22e-31
  9.7837e+06   5.82e-31
  1.0156e+07   4.62e-31
  1.0542e+07   3.60e-31
  1.0943e+07   2.82e-31
  1.1360e+07   2.18e-31
  1.1792e+07   1.65e-31
  1.2240e+07   1.24e-31
  1.2706e+07   9.24e-32
  1.3189e+07   6.70e-32
  1.3691e+07   4.82e-32
  1.4212e+07   3.41e-32
  1.4753e+07   2.33e-32
  1.5314e+07   1.57e-32
  1.5897e+07   1.04e-32
  1.6501e+07   6.56e-33
  1.7129e+07   4.04e-33
  1.7781e+07   2.41e-33
  1.8457e+07   1.36e-33
  1.9159e+07   7.34e-34
  1.9888e+07   3.78e-34
  2.0645e+07   1.81e-34
  2.1430e+07   8.03e-35
  2.2245e+07   3.30e-35
  2.3092e+07   1.22e-35
  2.3970e+07   4.00e-36
  2.4882e+07   1.15e-36
  2.5829e+07   2.81e-37
  2.6811e+07   5.63e-38
  2.7831e+07   9.06e-39
  2.8890e+07   1.11e-39
  2.9989e+07   9.76e-41
  3.1130e+07   5.88e-42
  3.2314e+07   2.21e-43
  3.3544e+07   4.69e-45
  3.4820e+07   4.99e-47
  3.6144e+07   2.26e-49
  3.7519e+07   3.55e-52
  3.8947e+07   1.51e-55
  4.0428e+07   1.24e-59
  4.1966e+07   1.28e-64
  4.3563e+07   9.62e-71
  4.5220e+07   4.59e-72
  4.6941e+07   4.12e-72
  4.8726e+07   3.77e-72
  5.0580e+07   3.45e-72
