#  E [GeV]   # per interaction  [GeV^{-1}]
  3.0000e+01   5.26e-01
  3.1123e+01   5.06e-01
  3.2288e+01   4.86e-01
  3.3497e+01   4.67e-01
  3.4751e+01   4.49e-01
  3.6051e+01   4.31e-01
  3.7401e+01   4.14e-01
  3.8801e+01   3.97e-01
  4.0253e+01   3.82e-01
  4.1760e+01   3.67e-01
  4.3324e+01   3.52e-01
  4.4945e+01   3.38e-01
  4.6628e+01   3.24e-01
  4.8373e+01   3.11e-01
  5.0184e+01   2.99e-01
  5.2063e+01   2.87e-01
  5.4011e+01   2.75e-01
  5.6033e+01   2.64e-01
  5.8131e+01   2.53e-01
  6.0307e+01   2.43e-01
  6.2564e+01   2.33e-01
  6.4906e+01   2.24e-01
  6.7336e+01   2.14e-01
  6.9857e+01   2.06e-01
  7.2472e+01   1.97e-01
  7.5184e+01   1.89e-01
  7.7999e+01   1.81e-01
  8.0919e+01   1.73e-01
  8.3948e+01   1.66e-01
  8.7090e+01   1.59e-01
  9.0350e+01   1.52e-01
  9.3732e+01   1.46e-01
  9.7241e+01   1.40e-01
  1.0088e+02   1.34e-01
  1.0466e+02   1.28e-01
  1.0858e+02   1.22e-01
  1.1264e+02   1.17e-01
  1.1686e+02   1.12e-01
  1.2123e+02   1.07e-01
  1.2577e+02   1.02e-01
  1.3048e+02   9.76e-02
  1.3536e+02   9.32e-02
  1.4043e+02   8.90e-02
  1.4568e+02   8.49e-02
  1.5114e+02   8.10e-02
  1.5680e+02   7.72e-02
  1.6266e+02   7.36e-02
  1.6875e+02   7.01e-02
  1.7507e+02   6.68e-02
  1.8162e+02   6.36e-02
  1.8842e+02   6.05e-02
  1.9548e+02   5.76e-02
  2.0279e+02   5.47e-02
  2.1039e+02   5.20e-02
  2.1826e+02   4.94e-02
  2.2643e+02   4.69e-02
  2.3491e+02   4.45e-02
  2.4370e+02   4.22e-02
  2.5282e+02   4.00e-02
  2.6229e+02   3.79e-02
  2.7211e+02   3.59e-02
  2.8229e+02   3.40e-02
  2.9286e+02   3.21e-02
  3.0382e+02   3.03e-02
  3.1519e+02   2.86e-02
  3.2699e+02   2.70e-02
  3.3923e+02   2.55e-02
  3.5193e+02   2.40e-02
  3.6511e+02   2.26e-02
  3.7877e+02   2.13e-02
  3.9295e+02   2.00e-02
  4.0766e+02   1.88e-02
  4.2292e+02   1.76e-02
  4.3875e+02   1.65e-02
  4.5518e+02   1.55e-02
  4.7222e+02   1.45e-02
  4.8989e+02   1.36e-02
  5.0823e+02   1.27e-02
  5.2726e+02   1.19e-02
  5.4699e+02   1.11e-02
  5.6747e+02   1.04e-02
  5.8871e+02   9.66e-03
  6.1075e+02   9.01e-03
  6.3361e+02   8.39e-03
  6.5733e+02   7.82e-03
  6.8194e+02   7.27e-03
  7.0746e+02   6.77e-03
  7.3395e+02   6.29e-03
  7.6142e+02   5.84e-03
  7.8992e+02   5.43e-03
  8.1949e+02   5.04e-03
  8.5017e+02   4.68e-03
  8.8199e+02   4.34e-03
  9.1501e+02   4.03e-03
  9.4926e+02   3.73e-03
  9.8479e+02   3.46e-03
  1.0217e+03   3.21e-03
  1.0599e+03   2.97e-03
  1.0996e+03   2.75e-03
  1.1407e+03   2.55e-03
  1.1834e+03   2.36e-03
  1.2277e+03   2.18e-03
  1.2737e+03   2.02e-03
  1.3214e+03   1.87e-03
  1.3708e+03   1.72e-03
  1.4222e+03   1.59e-03
  1.4754e+03   1.47e-03
  1.5306e+03   1.36e-03
  1.5879e+03   1.26e-03
  1.6474e+03   1.16e-03
  1.7090e+03   1.07e-03
  1.7730e+03   9.89e-04
  1.8394e+03   9.13e-04
  1.9082e+03   8.41e-04
  1.9797e+03   7.76e-04
  2.0538e+03   7.15e-04
  2.1306e+03   6.58e-04
  2.2104e+03   6.06e-04
  2.2931e+03   5.57e-04
  2.3790e+03   5.11e-04
  2.4680e+03   4.70e-04
  2.5604e+03   4.31e-04
  2.6563e+03   3.95e-04
  2.7557e+03   3.62e-04
  2.8589e+03   3.32e-04
  2.9659e+03   3.03e-04
  3.0769e+03   2.77e-04
  3.1921e+03   2.53e-04
  3.3116e+03   2.31e-04
  3.4355e+03   2.10e-04
  3.5641e+03   1.91e-04
  3.6976e+03   1.74e-04
  3.8360e+03   1.58e-04
  3.9796e+03   1.43e-04
  4.1285e+03   1.29e-04
  4.2831e+03   1.17e-04
  4.4434e+03   1.05e-04
  4.6097e+03   9.50e-05
  4.7823e+03   8.52e-05
  4.9613e+03   7.65e-05
  5.1470e+03   6.85e-05
  5.3397e+03   6.11e-05
  5.5396e+03   5.45e-05
  5.7470e+03   4.85e-05
  5.9621e+03   4.29e-05
  6.1853e+03   3.80e-05
  6.4168e+03   3.35e-05
  6.6570e+03   2.95e-05
  6.9062e+03   2.58e-05
  7.1647e+03   2.26e-05
  7.4329e+03   1.97e-05
  7.7112e+03   1.70e-05
  7.9998e+03   1.48e-05
  8.2993e+03   1.27e-05
  8.6100e+03   1.08e-05
  8.9323e+03   9.28e-06
  9.2666e+03   7.86e-06
  9.6135e+03   6.59e-06
  9.9734e+03   5.55e-06
  1.0347e+04   4.62e-06
  1.0734e+04   3.80e-06
  1.1136e+04   3.13e-06
  1.1553e+04   2.55e-06
  1.1985e+04   2.04e-06
  1.2434e+04   1.64e-06
  1.2899e+04   1.30e-06
  1.3382e+04   1.01e-06
  1.3883e+04   7.78e-07
  1.4403e+04   5.94e-07
  1.4942e+04   4.42e-07
  1.5501e+04   3.25e-07
  1.6081e+04   2.36e-07
  1.6683e+04   1.66e-07
  1.7308e+04   1.14e-07
  1.7956e+04   7.71e-08
  1.8628e+04   5.00e-08
  1.9325e+04   3.12e-08
  2.0049e+04   1.90e-08
  2.0799e+04   1.10e-08
  2.1578e+04   5.97e-09
  2.2386e+04   3.14e-09
  2.3224e+04   1.52e-09
  2.4093e+04   6.74e-10
  2.4995e+04   2.81e-10
  2.5930e+04   1.04e-10
  2.6901e+04   3.36e-11
  2.7908e+04   9.61e-12
  2.8953e+04   2.30e-12
  3.0037e+04   4.39e-13
  3.1161e+04   6.65e-14
  3.2327e+04   7.46e-15
  3.3537e+04   5.71e-16
  3.4793e+04   2.83e-17
  3.6095e+04   8.25e-19
  3.7446e+04   1.20e-20
  3.8848e+04   7.49e-23
  4.0302e+04   1.64e-25
  4.1811e+04   9.25e-29
  4.3376e+04   9.41e-33
  4.5000e+04   1.13e-37
