#  E [MeV]   Flux [# cm^{-2} s^{-1}  MeV^{-1}]
  3.0000e+04   1.97e-26
  3.1051e+04   1.89e-26
  3.2139e+04   1.82e-26
  3.3266e+04   1.75e-26
  3.4432e+04   1.69e-26
  3.5638e+04   1.62e-26
  3.6887e+04   1.56e-26
  3.8180e+04   1.50e-26
  3.9518e+04   1.44e-26
  4.0903e+04   1.38e-26
  4.2336e+04   1.33e-26
  4.3820e+04   1.28e-26
  4.5355e+04   1.23e-26
  4.6945e+04   1.18e-26
  4.8590e+04   1.13e-26
  5.0293e+04   1.08e-26
  5.2055e+04   1.04e-26
  5.3879e+04   9.97e-27
  5.5767e+04   9.56e-27
  5.7722e+04   9.16e-27
  5.9745e+04   8.78e-27
  6.1838e+04   8.41e-27
  6.4005e+04   8.06e-27
  6.6248e+04   7.72e-27
  6.8570e+04   7.39e-27
  7.0973e+04   7.07e-27
  7.3460e+04   6.77e-27
  7.6034e+04   6.48e-27
  7.8699e+04   6.20e-27
  8.1457e+04   5.92e-27
  8.4311e+04   5.67e-27
  8.7266e+04   5.42e-27
  9.0324e+04   5.17e-27
  9.3490e+04   4.94e-27
  9.6766e+04   4.72e-27
  1.0016e+05   4.51e-27
  1.0367e+05   4.30e-27
  1.0730e+05   4.11e-27
  1.1106e+05   3.92e-27
  1.1495e+05   3.74e-27
  1.1898e+05   3.56e-27
  1.2315e+05   3.40e-27
  1.2747e+05   3.24e-27
  1.3193e+05   3.09e-27
  1.3656e+05   2.94e-27
  1.4134e+05   2.80e-27
  1.4629e+05   2.67e-27
  1.5142e+05   2.54e-27
  1.5673e+05   2.41e-27
  1.6222e+05   2.30e-27
  1.6790e+05   2.18e-27
  1.7379e+05   2.08e-27
  1.7988e+05   1.97e-27
  1.8618e+05   1.87e-27
  1.9271e+05   1.78e-27
  1.9946e+05   1.69e-27
  2.0645e+05   1.60e-27
  2.1369e+05   1.52e-27
  2.2117e+05   1.44e-27
  2.2892e+05   1.37e-27
  2.3695e+05   1.30e-27
  2.4525e+05   1.23e-27
  2.5385e+05   1.16e-27
  2.6274e+05   1.10e-27
  2.7195e+05   1.04e-27
  2.8148e+05   9.86e-28
  2.9134e+05   9.33e-28
  3.0155e+05   8.82e-28
  3.1212e+05   8.33e-28
  3.2306e+05   7.87e-28
  3.3438e+05   7.44e-28
  3.4610e+05   7.02e-28
  3.5823e+05   6.63e-28
  3.7078e+05   6.25e-28
  3.8377e+05   5.89e-28
  3.9722e+05   5.55e-28
  4.1114e+05   5.23e-28
  4.2555e+05   4.93e-28
  4.4046e+05   4.64e-28
  4.5590e+05   4.37e-28
  4.7188e+05   4.11e-28
  4.8841e+05   3.86e-28
  5.0553e+05   3.63e-28
  5.2324e+05   3.42e-28
  5.4158e+05   3.21e-28
  5.6056e+05   3.02e-28
  5.8020e+05   2.84e-28
  6.0054e+05   2.66e-28
  6.2158e+05   2.50e-28
  6.4337e+05   2.35e-28
  6.6591e+05   2.20e-28
  6.8925e+05   2.07e-28
  7.1340e+05   1.94e-28
  7.3840e+05   1.82e-28
  7.6428e+05   1.71e-28
  7.9106e+05   1.61e-28
  8.1878e+05   1.51e-28
  8.4748e+05   1.42e-28
  8.7718e+05   1.33e-28
  9.0792e+05   1.25e-28
  9.3973e+05   1.17e-28
  9.7267e+05   1.10e-28
  1.0068e+06   1.04e-28
  1.0420e+06   9.76e-29
  1.0785e+06   9.18e-29
  1.1163e+06   8.64e-29
  1.1555e+06   8.13e-29
  1.1960e+06   7.66e-29
  1.2379e+06   7.21e-29
  1.2813e+06   6.80e-29
  1.3262e+06   6.41e-29
  1.3726e+06   6.04e-29
  1.4207e+06   5.70e-29
  1.4705e+06   5.38e-29
  1.5220e+06   5.08e-29
  1.5754e+06   4.80e-29
  1.6306e+06   4.54e-29
  1.6877e+06   4.29e-29
  1.7469e+06   4.06e-29
  1.8081e+06   3.84e-29
  1.8715e+06   3.63e-29
  1.9370e+06   3.44e-29
  2.0049e+06   3.26e-29
  2.0752e+06   3.09e-29
  2.1479e+06   2.93e-29
  2.2232e+06   2.78e-29
  2.3011e+06   2.64e-29
  2.3817e+06   2.50e-29
  2.4652e+06   2.38e-29
  2.5516e+06   2.26e-29
  2.6410e+06   2.14e-29
  2.7336e+06   2.03e-29
  2.8294e+06   1.93e-29
  2.9285e+06   1.83e-29
  3.0311e+06   1.74e-29
  3.1374e+06   1.66e-29
  3.2473e+06   1.57e-29
  3.3611e+06   1.49e-29
  3.4789e+06   1.42e-29
  3.6008e+06   1.35e-29
  3.7270e+06   1.28e-29
  3.8576e+06   1.21e-29
  3.9928e+06   1.15e-29
  4.1327e+06   1.09e-29
  4.2775e+06   1.04e-29
  4.4274e+06   9.82e-30
  4.5826e+06   9.30e-30
  4.7432e+06   8.81e-30
  4.9094e+06   8.33e-30
  5.0815e+06   7.88e-30
  5.2595e+06   7.44e-30
  5.4438e+06   7.03e-30
  5.6346e+06   6.62e-30
  5.8321e+06   6.23e-30
  6.0365e+06   5.85e-30
  6.2480e+06   5.50e-30
  6.4670e+06   5.16e-30
  6.6936e+06   4.83e-30
  6.9282e+06   4.52e-30
  7.1709e+06   4.21e-30
  7.4222e+06   3.93e-30
  7.6823e+06   3.65e-30
  7.9516e+06   3.39e-30
  8.2302e+06   3.13e-30
  8.5186e+06   2.89e-30
  8.8172e+06   2.66e-30
  9.1262e+06   2.45e-30
  9.4460e+06   2.24e-30
  9.7770e+06   2.04e-30
  1.0120e+07   1.85e-30
  1.0474e+07   1.68e-30
  1.0841e+07   1.51e-30
  1.1221e+07   1.35e-30
  1.1614e+07   1.20e-30
  1.2022e+07   1.07e-30
  1.2443e+07   9.38e-31
  1.2879e+07   8.19e-31
  1.3330e+07   7.10e-31
  1.3797e+07   6.10e-31
  1.4281e+07   5.19e-31
  1.4781e+07   4.37e-31
  1.5299e+07   3.63e-31
  1.5835e+07   2.98e-31
  1.6390e+07   2.41e-31
  1.6965e+07   1.92e-31
  1.7559e+07   1.50e-31
  1.8175e+07   1.15e-31
  1.8812e+07   8.63e-32
  1.9471e+07   6.29e-32
  2.0153e+07   4.46e-32
  2.0859e+07   3.05e-32
  2.1590e+07   2.01e-32
  2.2347e+07   1.27e-32
  2.3130e+07   7.61e-33
  2.3941e+07   4.31e-33
  2.4780e+07   2.28e-33
  2.5648e+07   1.11e-33
  2.6547e+07   4.98e-34
  2.7477e+07   2.00e-34
  2.8440e+07   7.17e-35
