#  E [MeV]   Flux [# cm^{-2} s^{-1}  MeV^{-1}]
  3.0000e+04   1.21e-20
  3.1033e+04   1.16e-20
  3.2102e+04   1.12e-20
  3.3207e+04   1.08e-20
  3.4350e+04   1.04e-20
  3.5533e+04   9.97e-21
  3.6757e+04   9.59e-21
  3.8022e+04   9.22e-21
  3.9332e+04   8.86e-21
  4.0686e+04   8.52e-21
  4.2087e+04   8.18e-21
  4.3536e+04   7.86e-21
  4.5035e+04   7.55e-21
  4.6586e+04   7.25e-21
  4.8190e+04   6.96e-21
  4.9850e+04   6.68e-21
  5.1566e+04   6.41e-21
  5.3342e+04   6.15e-21
  5.5178e+04   5.90e-21
  5.7078e+04   5.66e-21
  5.9044e+04   5.43e-21
  6.1077e+04   5.20e-21
  6.3180e+04   4.99e-21
  6.5356e+04   4.78e-21
  6.7606e+04   4.58e-21
  6.9934e+04   4.39e-21
  7.2342e+04   4.20e-21
  7.4833e+04   4.02e-21
  7.7410e+04   3.85e-21
  8.0075e+04   3.68e-21
  8.2833e+04   3.52e-21
  8.5685e+04   3.37e-21
  8.8635e+04   3.22e-21
  9.1687e+04   3.08e-21
  9.4844e+04   2.95e-21
  9.8110e+04   2.82e-21
  1.0149e+05   2.69e-21
  1.0498e+05   2.57e-21
  1.0860e+05   2.45e-21
  1.1234e+05   2.34e-21
  1.1621e+05   2.24e-21
  1.2021e+05   2.14e-21
  1.2435e+05   2.04e-21
  1.2863e+05   1.94e-21
  1.3306e+05   1.86e-21
  1.3764e+05   1.77e-21
  1.4238e+05   1.69e-21
  1.4728e+05   1.61e-21
  1.5235e+05   1.53e-21
  1.5760e+05   1.46e-21
  1.6302e+05   1.39e-21
  1.6864e+05   1.33e-21
  1.7445e+05   1.26e-21
  1.8045e+05   1.20e-21
  1.8667e+05   1.14e-21
  1.9309e+05   1.09e-21
  1.9974e+05   1.04e-21
  2.0662e+05   9.85e-22
  2.1373e+05   9.37e-22
  2.2109e+05   8.91e-22
  2.2871e+05   8.47e-22
  2.3658e+05   8.05e-22
  2.4473e+05   7.65e-22
  2.5316e+05   7.27e-22
  2.6187e+05   6.91e-22
  2.7089e+05   6.56e-22
  2.8022e+05   6.23e-22
  2.8987e+05   5.92e-22
  2.9985e+05   5.62e-22
  3.1017e+05   5.34e-22
  3.2085e+05   5.07e-22
  3.3190e+05   4.81e-22
  3.4333e+05   4.56e-22
  3.5515e+05   4.33e-22
  3.6738e+05   4.11e-22
  3.8003e+05   3.90e-22
  3.9312e+05   3.70e-22
  4.0665e+05   3.50e-22
  4.2066e+05   3.32e-22
  4.3514e+05   3.15e-22
  4.5013e+05   2.99e-22
  4.6562e+05   2.83e-22
  4.8166e+05   2.68e-22
  4.9824e+05   2.54e-22
  5.1540e+05   2.41e-22
  5.3315e+05   2.29e-22
  5.5150e+05   2.17e-22
  5.7050e+05   2.05e-22
  5.9014e+05   1.94e-22
  6.1046e+05   1.84e-22
  6.3148e+05   1.75e-22
  6.5322e+05   1.65e-22
  6.7572e+05   1.57e-22
  6.9898e+05   1.49e-22
  7.2305e+05   1.41e-22
  7.4795e+05   1.33e-22
  7.7371e+05   1.26e-22
  8.0035e+05   1.20e-22
  8.2791e+05   1.14e-22
  8.5641e+05   1.08e-22
  8.8590e+05   1.02e-22
  9.1641e+05   9.69e-23
  9.4796e+05   9.19e-23
  9.8061e+05   8.71e-23
  1.0144e+06   8.27e-23
  1.0493e+06   7.85e-23
  1.0854e+06   7.45e-23
  1.1228e+06   7.07e-23
  1.1615e+06   6.72e-23
  1.2015e+06   6.38e-23
  1.2428e+06   6.06e-23
  1.2856e+06   5.76e-23
  1.3299e+06   5.47e-23
  1.3757e+06   5.20e-23
  1.4231e+06   4.94e-23
  1.4721e+06   4.70e-23
  1.5228e+06   4.47e-23
  1.5752e+06   4.25e-23
  1.6294e+06   4.05e-23
  1.6855e+06   3.85e-23
  1.7436e+06   3.67e-23
  1.8036e+06   3.49e-23
  1.8657e+06   3.33e-23
  1.9300e+06   3.17e-23
  1.9964e+06   3.02e-23
  2.0652e+06   2.88e-23
  2.1363e+06   2.75e-23
  2.2098e+06   2.62e-23
  2.2859e+06   2.50e-23
  2.3646e+06   2.39e-23
  2.4461e+06   2.28e-23
  2.5303e+06   2.17e-23
  2.6174e+06   2.08e-23
  2.7075e+06   1.98e-23
  2.8008e+06   1.89e-23
  2.8972e+06   1.81e-23
  2.9970e+06   1.73e-23
  3.1002e+06   1.65e-23
  3.2069e+06   1.58e-23
  3.3173e+06   1.51e-23
  3.4316e+06   1.44e-23
  3.5497e+06   1.38e-23
  3.6720e+06   1.32e-23
  3.7984e+06   1.26e-23
  3.9292e+06   1.20e-23
  4.0645e+06   1.15e-23
  4.2044e+06   1.10e-23
  4.3492e+06   1.05e-23
  4.4990e+06   1.01e-23
  4.6539e+06   9.64e-24
  4.8141e+06   9.21e-24
  4.9799e+06   8.81e-24
  5.1514e+06   8.41e-24
  5.3288e+06   8.03e-24
  5.5123e+06   7.67e-24
  5.7021e+06   7.32e-24
  5.8984e+06   6.99e-24
  6.1015e+06   6.67e-24
  6.3116e+06   6.36e-24
  6.5289e+06   6.07e-24
  6.7538e+06   5.79e-24
  6.9863e+06   5.51e-24
  7.2269e+06   5.25e-24
  7.4757e+06   5.00e-24
  7.7331e+06   4.76e-24
  7.9994e+06   4.53e-24
  8.2749e+06   4.31e-24
  8.5598e+06   4.10e-24
  8.8546e+06   3.89e-24
  9.1594e+06   3.69e-24
  9.4748e+06   3.50e-24
  9.8011e+06   3.32e-24
  1.0139e+07   3.15e-24
  1.0488e+07   2.98e-24
  1.0849e+07   2.81e-24
  1.1222e+07   2.66e-24
  1.1609e+07   2.50e-24
  1.2009e+07   2.36e-24
  1.2422e+07   2.22e-24
  1.2850e+07   2.09e-24
  1.3292e+07   1.96e-24
  1.3750e+07   1.83e-24
  1.4223e+07   1.71e-24
  1.4713e+07   1.60e-24
  1.5220e+07   1.49e-24
  1.5744e+07   1.39e-24
  1.6286e+07   1.29e-24
  1.6847e+07   1.19e-24
  1.7427e+07   1.10e-24
  1.8027e+07   1.01e-24
  1.8648e+07   9.25e-25
  1.9290e+07   8.44e-25
  1.9954e+07   7.67e-25
  2.0641e+07   6.93e-25
  2.1352e+07   6.22e-25
  2.2087e+07   5.55e-25
  2.2848e+07   4.91e-25
  2.3634e+07   4.30e-25
  2.4448e+07   3.73e-25
  2.5290e+07   3.21e-25
