#  E [GeV]   # per interaction  [GeV^{-1}]
  3.0000e+01   1.14e+00
  3.1123e+01   1.09e+00
  3.2288e+01   1.05e+00
  3.3497e+01   1.00e+00
  3.4751e+01   9.58e-01
  3.6051e+01   9.15e-01
  3.7401e+01   8.75e-01
  3.8801e+01   8.36e-01
  4.0253e+01   7.99e-01
  4.1760e+01   7.63e-01
  4.3324e+01   7.29e-01
  4.4945e+01   6.96e-01
  4.6628e+01   6.65e-01
  4.8373e+01   6.35e-01
  5.0184e+01   6.06e-01
  5.2063e+01   5.78e-01
  5.4011e+01   5.52e-01
  5.6033e+01   5.27e-01
  5.8131e+01   5.02e-01
  6.0307e+01   4.79e-01
  6.2564e+01   4.57e-01
  6.4906e+01   4.36e-01
  6.7336e+01   4.16e-01
  6.9857e+01   3.96e-01
  7.2472e+01   3.78e-01
  7.5184e+01   3.60e-01
  7.7999e+01   3.43e-01
  8.0919e+01   3.26e-01
  8.3948e+01   3.11e-01
  8.7090e+01   2.96e-01
  9.0350e+01   2.82e-01
  9.3732e+01   2.68e-01
  9.7241e+01   2.55e-01
  1.0088e+02   2.43e-01
  1.0466e+02   2.31e-01
  1.0858e+02   2.20e-01
  1.1264e+02   2.09e-01
  1.1686e+02   1.98e-01
  1.2123e+02   1.89e-01
  1.2577e+02   1.79e-01
  1.3048e+02   1.70e-01
  1.3536e+02   1.62e-01
  1.4043e+02   1.54e-01
  1.4568e+02   1.46e-01
  1.5114e+02   1.38e-01
  1.5680e+02   1.31e-01
  1.6266e+02   1.24e-01
  1.6875e+02   1.18e-01
  1.7507e+02   1.12e-01
  1.8162e+02   1.06e-01
  1.8842e+02   1.00e-01
  1.9548e+02   9.50e-02
  2.0279e+02   9.00e-02
  2.1039e+02   8.51e-02
  2.1826e+02   8.05e-02
  2.2643e+02   7.62e-02
  2.3491e+02   7.20e-02
  2.4370e+02   6.80e-02
  2.5282e+02   6.43e-02
  2.6229e+02   6.07e-02
  2.7211e+02   5.72e-02
  2.8229e+02   5.40e-02
  2.9286e+02   5.09e-02
  3.0382e+02   4.79e-02
  3.1519e+02   4.52e-02
  3.2699e+02   4.25e-02
  3.3923e+02   4.00e-02
  3.5193e+02   3.76e-02
  3.6511e+02   3.53e-02
  3.7877e+02   3.32e-02
  3.9295e+02   3.11e-02
  4.0766e+02   2.92e-02
  4.2292e+02   2.74e-02
  4.3875e+02   2.57e-02
  4.5518e+02   2.40e-02
  4.7222e+02   2.25e-02
  4.8989e+02   2.10e-02
  5.0823e+02   1.97e-02
  5.2726e+02   1.84e-02
  5.4699e+02   1.72e-02
  5.6747e+02   1.60e-02
  5.8871e+02   1.50e-02
  6.1075e+02   1.40e-02
  6.3361e+02   1.30e-02
  6.5733e+02   1.21e-02
  6.8194e+02   1.13e-02
  7.0746e+02   1.05e-02
  7.3395e+02   9.77e-03
  7.6142e+02   9.08e-03
  7.8992e+02   8.44e-03
  8.1949e+02   7.84e-03
  8.5017e+02   7.27e-03
  8.8199e+02   6.75e-03
  9.1501e+02   6.26e-03
  9.4926e+02   5.80e-03
  9.8479e+02   5.37e-03
  1.0217e+03   4.98e-03
  1.0599e+03   4.61e-03
  1.0996e+03   4.26e-03
  1.1407e+03   3.94e-03
  1.1834e+03   3.64e-03
  1.2277e+03   3.35e-03
  1.2737e+03   3.10e-03
  1.3214e+03   2.86e-03
  1.3708e+03   2.63e-03
  1.4222e+03   2.42e-03
  1.4754e+03   2.23e-03
  1.5306e+03   2.05e-03
  1.5879e+03   1.88e-03
  1.6474e+03   1.73e-03
  1.7090e+03   1.59e-03
  1.7730e+03   1.46e-03
  1.8394e+03   1.34e-03
  1.9082e+03   1.22e-03
  1.9797e+03   1.12e-03
  2.0538e+03   1.03e-03
  2.1306e+03   9.37e-04
  2.2104e+03   8.54e-04
  2.2931e+03   7.80e-04
  2.3790e+03   7.10e-04
  2.4680e+03   6.45e-04
  2.5604e+03   5.87e-04
  2.6563e+03   5.33e-04
  2.7557e+03   4.83e-04
  2.8589e+03   4.38e-04
  2.9659e+03   3.97e-04
  3.0769e+03   3.58e-04
  3.1921e+03   3.24e-04
  3.3116e+03   2.93e-04
  3.4355e+03   2.63e-04
  3.5641e+03   2.37e-04
  3.6976e+03   2.13e-04
  3.8360e+03   1.91e-04
  3.9796e+03   1.71e-04
  4.1285e+03   1.53e-04
  4.2831e+03   1.37e-04
  4.4434e+03   1.22e-04
  4.6097e+03   1.09e-04
  4.7823e+03   9.68e-05
  4.9613e+03   8.57e-05
  5.1470e+03   7.62e-05
  5.3397e+03   6.74e-05
  5.5396e+03   5.93e-05
  5.7470e+03   5.25e-05
  5.9621e+03   4.62e-05
  6.1853e+03   4.03e-05
  6.4168e+03   3.56e-05
  6.6570e+03   3.12e-05
  6.9062e+03   2.71e-05
  7.1647e+03   2.37e-05
  7.4329e+03   2.07e-05
  7.7112e+03   1.79e-05
  7.9998e+03   1.55e-05
  8.2993e+03   1.35e-05
  8.6100e+03   1.16e-05
  8.9323e+03   9.97e-06
  9.2666e+03   8.59e-06
  9.6135e+03   7.32e-06
  9.9734e+03   6.24e-06
  1.0347e+04   5.34e-06
  1.0734e+04   4.52e-06
  1.1136e+04   3.81e-06
  1.1553e+04   3.24e-06
  1.1985e+04   2.72e-06
  1.2434e+04   2.27e-06
  1.2899e+04   1.91e-06
  1.3382e+04   1.59e-06
  1.3883e+04   1.31e-06
  1.4403e+04   1.09e-06
  1.4942e+04   8.95e-07
  1.5501e+04   7.23e-07
  1.6081e+04   5.92e-07
  1.6683e+04   4.78e-07
  1.7308e+04   3.79e-07
  1.7956e+04   3.02e-07
  1.8628e+04   2.38e-07
  1.9325e+04   1.84e-07
  2.0049e+04   1.41e-07
  2.0799e+04   1.07e-07
  2.1578e+04   7.89e-08
  2.2386e+04   5.72e-08
  2.3224e+04   4.05e-08
  2.4093e+04   2.76e-08
  2.4995e+04   1.82e-08
  2.5930e+04   1.15e-08
  2.6901e+04   6.85e-09
  2.7908e+04   3.84e-09
  2.8953e+04   2.01e-09
  3.0037e+04   9.58e-10
  3.1161e+04   4.09e-10
  3.2327e+04   1.54e-10
  3.3537e+04   4.95e-11
  3.4793e+04   1.31e-11
  3.6095e+04   2.72e-12
  3.7446e+04   4.22e-13
  3.8848e+04   4.56e-14
  4.0302e+04   3.12e-15
  4.1811e+04   1.21e-16
  4.3376e+04   2.29e-18
  4.5000e+04   1.77e-20
