#  E [GeV]   # per interaction  [GeV^{-1}]
  3.0000e+01   5.08e-03
  3.0589e+01   4.94e-03
  3.1190e+01   4.81e-03
  3.1803e+01   4.68e-03
  3.2428e+01   4.55e-03
  3.3065e+01   4.43e-03
  3.3714e+01   4.31e-03
  3.4376e+01   4.20e-03
  3.5052e+01   4.09e-03
  3.5740e+01   3.98e-03
  3.6442e+01   3.87e-03
  3.7158e+01   3.77e-03
  3.7888e+01   3.66e-03
  3.8632e+01   3.57e-03
  3.9391e+01   3.47e-03
  4.0165e+01   3.38e-03
  4.0954e+01   3.29e-03
  4.1758e+01   3.20e-03
  4.2579e+01   3.11e-03
  4.3415e+01   3.03e-03
  4.4268e+01   2.95e-03
  4.5138e+01   2.87e-03
  4.6024e+01   2.79e-03
  4.6928e+01   2.72e-03
  4.7850e+01   2.65e-03
  4.8790e+01   2.58e-03
  4.9749e+01   2.51e-03
  5.0726e+01   2.44e-03
  5.1722e+01   2.38e-03
  5.2738e+01   2.32e-03
  5.3774e+01   2.25e-03
  5.4831e+01   2.19e-03
  5.5908e+01   2.14e-03
  5.7006e+01   2.08e-03
  5.8126e+01   2.03e-03
  5.9268e+01   1.97e-03
  6.0432e+01   1.92e-03
  6.1619e+01   1.87e-03
  6.2829e+01   1.82e-03
  6.4064e+01   1.77e-03
  6.5322e+01   1.73e-03
  6.6605e+01   1.68e-03
  6.7913e+01   1.64e-03
  6.9248e+01   1.60e-03
  7.0608e+01   1.56e-03
  7.1995e+01   1.52e-03
  7.3409e+01   1.48e-03
  7.4851e+01   1.44e-03
  7.6321e+01   1.40e-03
  7.7821e+01   1.37e-03
  7.9349e+01   1.33e-03
  8.0908e+01   1.30e-03
  8.2497e+01   1.26e-03
  8.4118e+01   1.23e-03
  8.5770e+01   1.20e-03
  8.7455e+01   1.17e-03
  8.9173e+01   1.14e-03
  9.0925e+01   1.11e-03
  9.2711e+01   1.08e-03
  9.4532e+01   1.06e-03
  9.6389e+01   1.03e-03
  9.8283e+01   1.00e-03
  1.0021e+02   9.78e-04
  1.0218e+02   9.54e-04
  1.0419e+02   9.30e-04
  1.0624e+02   9.07e-04
  1.0832e+02   8.84e-04
  1.1045e+02   8.62e-04
  1.1262e+02   8.40e-04
  1.1483e+02   8.19e-04
  1.1709e+02   7.99e-04
  1.1939e+02   7.79e-04
  1.2173e+02   7.59e-04
  1.2412e+02   7.40e-04
  1.2656e+02   7.22e-04
  1.2905e+02   7.04e-04
  1.3158e+02   6.87e-04
  1.3417e+02   6.70e-04
  1.3680e+02   6.53e-04
  1.3949e+02   6.37e-04
  1.4223e+02   6.21e-04
  1.4503e+02   6.06e-04
  1.4787e+02   5.91e-04
  1.5078e+02   5.77e-04
  1.5374e+02   5.62e-04
  1.5676e+02   5.49e-04
  1.5984e+02   5.35e-04
  1.6298e+02   5.22e-04
  1.6618e+02   5.09e-04
  1.6945e+02   4.96e-04
  1.7278e+02   4.84e-04
  1.7617e+02   4.72e-04
  1.7963e+02   4.61e-04
  1.8316e+02   4.49e-04
  1.8676e+02   4.38e-04
  1.9042e+02   4.27e-04
  1.9417e+02   4.17e-04
  1.9798e+02   4.06e-04
  2.0187e+02   3.96e-04
  2.0583e+02   3.86e-04
  2.0988e+02   3.77e-04
  2.1400e+02   3.68e-04
  2.1820e+02   3.58e-04
  2.2249e+02   3.50e-04
  2.2686e+02   3.41e-04
  2.3132e+02   3.33e-04
  2.3586e+02   3.24e-04
  2.4049e+02   3.16e-04
  2.4522e+02   3.08e-04
  2.5004e+02   3.01e-04
  2.5495e+02   2.93e-04
  2.5996e+02   2.86e-04
  2.6506e+02   2.79e-04
  2.7027e+02   2.72e-04
  2.7558e+02   2.65e-04
  2.8099e+02   2.58e-04
  2.8651e+02   2.52e-04
  2.9214e+02   2.46e-04
  2.9788e+02   2.39e-04
  3.0373e+02   2.33e-04
  3.0970e+02   2.27e-04
  3.1578e+02   2.21e-04
  3.2198e+02   2.16e-04
  3.2831e+02   2.10e-04
  3.3476e+02   2.05e-04
  3.4133e+02   1.99e-04
  3.4804e+02   1.94e-04
  3.5487e+02   1.89e-04
  3.6185e+02   1.84e-04
  3.6895e+02   1.79e-04
  3.7620e+02   1.74e-04
  3.8359e+02   1.70e-04
  3.9113e+02   1.65e-04
  3.9881e+02   1.61e-04
  4.0664e+02   1.56e-04
  4.1463e+02   1.52e-04
  4.2278e+02   1.48e-04
  4.3108e+02   1.44e-04
  4.3955e+02   1.40e-04
  4.4818e+02   1.36e-04
  4.5699e+02   1.32e-04
  4.6596e+02   1.29e-04
  4.7512e+02   1.25e-04
  4.8445e+02   1.22e-04
  4.9397e+02   1.18e-04
  5.0367e+02   1.15e-04
  5.1356e+02   1.12e-04
  5.2365e+02   1.08e-04
  5.3394e+02   1.05e-04
  5.4443e+02   1.02e-04
  5.5512e+02   9.95e-05
  5.6603e+02   9.66e-05
  5.7715e+02   9.38e-05
  5.8848e+02   9.11e-05
  6.0004e+02   8.84e-05
  6.1183e+02   8.58e-05
  6.2385e+02   8.33e-05
  6.3610e+02   8.08e-05
  6.4860e+02   7.84e-05
  6.6134e+02   7.60e-05
  6.7433e+02   7.37e-05
  6.8758e+02   7.15e-05
  7.0108e+02   6.94e-05
  7.1486e+02   6.72e-05
  7.2890e+02   6.52e-05
  7.4322e+02   6.31e-05
  7.5782e+02   6.12e-05
  7.7270e+02   5.93e-05
  7.8788e+02   5.74e-05
  8.0336e+02   5.57e-05
  8.1914e+02   5.39e-05
  8.3523e+02   5.22e-05
  8.5164e+02   5.06e-05
  8.6837e+02   4.90e-05
  8.8542e+02   4.74e-05
  9.0282e+02   4.59e-05
  9.2055e+02   4.45e-05
  9.3863e+02   4.31e-05
  9.5707e+02   4.17e-05
  9.7587e+02   4.04e-05
  9.9504e+02   3.91e-05
  1.0146e+03   3.79e-05
  1.0345e+03   3.67e-05
  1.0548e+03   3.55e-05
  1.0756e+03   3.44e-05
  1.0967e+03   3.33e-05
  1.1182e+03   3.22e-05
  1.1402e+03   3.11e-05
  1.1626e+03   3.01e-05
  1.1854e+03   2.91e-05
  1.2087e+03   2.82e-05
  1.2325e+03   2.72e-05
  1.2567e+03   2.63e-05
  1.2814e+03   2.54e-05
  1.3065e+03   2.46e-05
  1.3322e+03   2.37e-05
  1.3584e+03   2.29e-05
  1.3851e+03   2.21e-05
  1.4123e+03   2.14e-05
  1.4400e+03   2.08e-05
