#  E [MeV]   Flux [# cm^{-2} s^{-1}  MeV^{-1}]
  3.0000e+04   6.57e-24
  3.0872e+04   6.35e-24
  3.1770e+04   6.14e-24
  3.2694e+04   5.94e-24
  3.3644e+04   5.74e-24
  3.4623e+04   5.55e-24
  3.5629e+04   5.36e-24
  3.6665e+04   5.18e-24
  3.7731e+04   5.01e-24
  3.8829e+04   4.83e-24
  3.9958e+04   4.67e-24
  4.1119e+04   4.51e-24
  4.2315e+04   4.35e-24
  4.3545e+04   4.20e-24
  4.4812e+04   4.05e-24
  4.6115e+04   3.90e-24
  4.7456e+04   3.77e-24
  4.8835e+04   3.63e-24
  5.0255e+04   3.50e-24
  5.1717e+04   3.37e-24
  5.3220e+04   3.25e-24
  5.4768e+04   3.12e-24
  5.6360e+04   3.01e-24
  5.7999e+04   2.89e-24
  5.9686e+04   2.78e-24
  6.1421e+04   2.67e-24
  6.3207e+04   2.57e-24
  6.5045e+04   2.47e-24
  6.6936e+04   2.37e-24
  6.8882e+04   2.28e-24
  7.0885e+04   2.19e-24
  7.2947e+04   2.10e-24
  7.5068e+04   2.01e-24
  7.7250e+04   1.93e-24
  7.9496e+04   1.85e-24
  8.1808e+04   1.77e-24
  8.4187e+04   1.70e-24
  8.6635e+04   1.63e-24
  8.9154e+04   1.56e-24
  9.1746e+04   1.49e-24
  9.4414e+04   1.42e-24
  9.7159e+04   1.36e-24
  9.9984e+04   1.30e-24
  1.0289e+05   1.24e-24
  1.0588e+05   1.19e-24
  1.0896e+05   1.13e-24
  1.1213e+05   1.08e-24
  1.1539e+05   1.03e-24
  1.1875e+05   9.85e-25
  1.2220e+05   9.39e-25
  1.2575e+05   8.95e-25
  1.2941e+05   8.52e-25
  1.3317e+05   8.11e-25
  1.3704e+05   7.72e-25
  1.4103e+05   7.35e-25
  1.4513e+05   6.99e-25
  1.4935e+05   6.65e-25
  1.5369e+05   6.32e-25
  1.5816e+05   6.01e-25
  1.6276e+05   5.70e-25
  1.6749e+05   5.41e-25
  1.7236e+05   5.14e-25
  1.7737e+05   4.88e-25
  1.8253e+05   4.62e-25
  1.8784e+05   4.38e-25
  1.9330e+05   4.15e-25
  1.9892e+05   3.93e-25
  2.0470e+05   3.72e-25
  2.1066e+05   3.52e-25
  2.1678e+05   3.32e-25
  2.2309e+05   3.14e-25
  2.2957e+05   2.96e-25
  2.3625e+05   2.79e-25
  2.4312e+05   2.63e-25
  2.5019e+05   2.48e-25
  2.5746e+05   2.34e-25
  2.6495e+05   2.20e-25
  2.7265e+05   2.07e-25
  2.8058e+05   1.94e-25
  2.8874e+05   1.83e-25
  2.9713e+05   1.71e-25
  3.0577e+05   1.61e-25
  3.1466e+05   1.51e-25
  3.2381e+05   1.41e-25
  3.3323e+05   1.32e-25
  3.4292e+05   1.24e-25
  3.5289e+05   1.16e-25
  3.6315e+05   1.08e-25
  3.7371e+05   1.01e-25
  3.8457e+05   9.38e-26
  3.9576e+05   8.75e-26
  4.0726e+05   8.15e-26
  4.1911e+05   7.58e-26
  4.3129e+05   7.05e-26
  4.4383e+05   6.55e-26
  4.5674e+05   6.08e-26
  4.7002e+05   5.63e-26
  4.8368e+05   5.22e-26
  4.9775e+05   4.83e-26
  5.1222e+05   4.47e-26
  5.2712e+05   4.13e-26
  5.4244e+05   3.81e-26
  5.5821e+05   3.52e-26
  5.7445e+05   3.25e-26
  5.9115e+05   2.99e-26
  6.0834e+05   2.75e-26
  6.2603e+05   2.54e-26
  6.4423e+05   2.34e-26
  6.6296e+05   2.15e-26
  6.8224e+05   1.97e-26
  7.0208e+05   1.81e-26
  7.2249e+05   1.66e-26
  7.4350e+05   1.52e-26
  7.6512e+05   1.39e-26
  7.8736e+05   1.28e-26
  8.1026e+05   1.17e-26
  8.3382e+05   1.06e-26
  8.5806e+05   9.68e-27
  8.8301e+05   8.85e-27
  9.0869e+05   8.08e-27
  9.3511e+05   7.35e-27
  9.6230e+05   6.68e-27
  9.9028e+05   6.10e-27
  1.0191e+06   5.55e-27
  1.0487e+06   5.04e-27
  1.0792e+06   4.57e-27
  1.1106e+06   4.17e-27
  1.1429e+06   3.79e-27
  1.1761e+06   3.43e-27
  1.2103e+06   3.10e-27
  1.2455e+06   2.82e-27
  1.2817e+06   2.56e-27
  1.3190e+06   2.31e-27
  1.3573e+06   2.09e-27
  1.3968e+06   1.90e-27
  1.4374e+06   1.72e-27
  1.4792e+06   1.55e-27
  1.5222e+06   1.39e-27
  1.5665e+06   1.27e-27
  1.6120e+06   1.15e-27
  1.6589e+06   1.03e-27
  1.7071e+06   9.26e-28
  1.7568e+06   8.39e-28
  1.8079e+06   7.58e-28
  1.8604e+06   6.81e-28
  1.9145e+06   6.09e-28
  1.9702e+06   5.51e-28
  2.0275e+06   4.97e-28
  2.0864e+06   4.46e-28
  2.1471e+06   3.98e-28
  2.2095e+06   3.60e-28
  2.2738e+06   3.24e-28
  2.3399e+06   2.90e-28
  2.4079e+06   2.58e-28
  2.4779e+06   2.33e-28
  2.5500e+06   2.09e-28
  2.6241e+06   1.87e-28
  2.7004e+06   1.66e-28
  2.7790e+06   1.50e-28
  2.8598e+06   1.34e-28
  2.9429e+06   1.20e-28
  3.0285e+06   1.06e-28
  3.1165e+06   9.57e-29
  3.2072e+06   8.58e-29
  3.3004e+06   7.64e-29
  3.3964e+06   6.75e-29
  3.4951e+06   6.07e-29
  3.5968e+06   5.43e-29
  3.7013e+06   4.83e-29
  3.8090e+06   4.26e-29
  3.9197e+06   3.82e-29
  4.0337e+06   3.40e-29
  4.1510e+06   3.01e-29
  4.2717e+06   2.65e-29
  4.3959e+06   2.37e-29
  4.5237e+06   2.12e-29
  4.6552e+06   1.88e-29
  4.7906e+06   1.65e-29
  4.9299e+06   1.48e-29
  5.0732e+06   1.33e-29
  5.2208e+06   1.18e-29
  5.3726e+06   1.04e-29
  5.5288e+06   9.46e-30
  5.6895e+06   8.56e-30
  5.8550e+06   7.72e-30
  6.0252e+06   6.92e-30
  6.2004e+06   6.34e-30
  6.3807e+06   5.81e-30
  6.5662e+06   5.31e-30
  6.7572e+06   4.84e-30
  6.9536e+06   4.48e-30
  7.1558e+06   4.15e-30
  7.3639e+06   3.84e-30
  7.5780e+06   3.55e-30
  7.7984e+06   3.31e-30
  8.0251e+06   3.08e-30
  8.2585e+06   2.87e-30
  8.4986e+06   2.67e-30
  8.7457e+06   2.48e-30
  9.0000e+06   2.30e-30
