#  E [GeV]   # per interaction  [GeV^{-1}]
  3.0000e+01   3.04e-02
  3.1232e+01   2.93e-02
  3.2514e+01   2.81e-02
  3.3849e+01   2.70e-02
  3.5238e+01   2.60e-02
  3.6685e+01   2.50e-02
  3.8191e+01   2.40e-02
  3.9759e+01   2.30e-02
  4.1391e+01   2.21e-02
  4.3090e+01   2.12e-02
  4.4859e+01   2.03e-02
  4.6701e+01   1.95e-02
  4.8618e+01   1.87e-02
  5.0614e+01   1.79e-02
  5.2692e+01   1.72e-02
  5.4855e+01   1.65e-02
  5.7107e+01   1.58e-02
  5.9451e+01   1.51e-02
  6.1892e+01   1.45e-02
  6.4433e+01   1.39e-02
  6.7078e+01   1.33e-02
  6.9832e+01   1.27e-02
  7.2699e+01   1.22e-02
  7.5683e+01   1.16e-02
  7.8790e+01   1.11e-02
  8.2025e+01   1.06e-02
  8.5392e+01   1.02e-02
  8.8898e+01   9.71e-03
  9.2547e+01   9.27e-03
  9.6347e+01   8.86e-03
  1.0030e+02   8.45e-03
  1.0442e+02   8.07e-03
  1.0871e+02   7.70e-03
  1.1317e+02   7.34e-03
  1.1782e+02   7.00e-03
  1.2265e+02   6.67e-03
  1.2769e+02   6.35e-03
  1.3293e+02   6.05e-03
  1.3839e+02   5.76e-03
  1.4407e+02   5.48e-03
  1.4998e+02   5.22e-03
  1.5614e+02   4.96e-03
  1.6255e+02   4.71e-03
  1.6922e+02   4.48e-03
  1.7617e+02   4.25e-03
  1.8340e+02   4.04e-03
  1.9093e+02   3.83e-03
  1.9877e+02   3.64e-03
  2.0693e+02   3.45e-03
  2.1543e+02   3.27e-03
  2.2427e+02   3.09e-03
  2.3348e+02   2.93e-03
  2.4306e+02   2.77e-03
  2.5304e+02   2.62e-03
  2.6343e+02   2.48e-03
  2.7424e+02   2.34e-03
  2.8550e+02   2.21e-03
  2.9722e+02   2.09e-03
  3.0942e+02   1.97e-03
  3.2213e+02   1.85e-03
  3.3535e+02   1.75e-03
  3.4912e+02   1.64e-03
  3.6345e+02   1.55e-03
  3.7837e+02   1.45e-03
  3.9390e+02   1.37e-03
  4.1008e+02   1.28e-03
  4.2691e+02   1.21e-03
  4.4444e+02   1.13e-03
  4.6268e+02   1.06e-03
  4.8168e+02   9.93e-04
  5.0145e+02   9.30e-04
  5.2204e+02   8.70e-04
  5.4347e+02   8.14e-04
  5.6578e+02   7.61e-04
  5.8901e+02   7.11e-04
  6.1319e+02   6.64e-04
  6.3836e+02   6.20e-04
  6.6457e+02   5.78e-04
  6.9185e+02   5.39e-04
  7.2025e+02   5.03e-04
  7.4982e+02   4.69e-04
  7.8061e+02   4.37e-04
  8.1265e+02   4.07e-04
  8.4601e+02   3.79e-04
  8.8075e+02   3.53e-04
  9.1690e+02   3.29e-04
  9.5455e+02   3.06e-04
  9.9373e+02   2.85e-04
  1.0345e+03   2.65e-04
  1.0770e+03   2.47e-04
  1.1212e+03   2.30e-04
  1.1672e+03   2.14e-04
  1.2152e+03   1.99e-04
  1.2650e+03   1.85e-04
  1.3170e+03   1.73e-04
  1.3711e+03   1.61e-04
  1.4273e+03   1.50e-04
  1.4859e+03   1.39e-04
  1.5469e+03   1.30e-04
  1.6104e+03   1.21e-04
  1.6766e+03   1.13e-04
  1.7454e+03   1.05e-04
  1.8170e+03   9.81e-05
  1.8916e+03   9.14e-05
  1.9693e+03   8.52e-05
  2.0501e+03   7.95e-05
  2.1343e+03   7.41e-05
  2.2219e+03   6.91e-05
  2.3131e+03   6.45e-05
  2.4081e+03   6.01e-05
  2.5070e+03   5.61e-05
  2.6099e+03   5.23e-05
  2.7170e+03   4.87e-05
  2.8286e+03   4.55e-05
  2.9447e+03   4.24e-05
  3.0656e+03   3.96e-05
  3.1914e+03   3.69e-05
  3.3225e+03   3.45e-05
  3.4589e+03   3.21e-05
  3.6008e+03   3.00e-05
  3.7487e+03   2.80e-05
  3.9026e+03   2.60e-05
  4.0628e+03   2.43e-05
  4.2296e+03   2.26e-05
  4.4032e+03   2.11e-05
  4.5840e+03   1.96e-05
  4.7722e+03   1.82e-05
  4.9681e+03   1.70e-05
  5.1720e+03   1.58e-05
  5.3844e+03   1.47e-05
  5.6054e+03   1.36e-05
  5.8355e+03   1.26e-05
  6.0751e+03   1.17e-05
  6.3245e+03   1.09e-05
  6.5841e+03   1.00e-05
  6.8544e+03   9.27e-06
  7.1358e+03   8.56e-06
  7.4288e+03   7.89e-06
  7.7338e+03   7.25e-06
  8.0513e+03   6.66e-06
  8.3818e+03   6.10e-06
  8.7259e+03   5.57e-06
  9.0841e+03   5.08e-06
  9.4571e+03   4.62e-06
  9.8453e+03   4.19e-06
  1.0249e+04   3.78e-06
  1.0670e+04   3.40e-06
  1.1108e+04   3.04e-06
  1.1564e+04   2.70e-06
  1.2039e+04   2.39e-06
  1.2533e+04   2.10e-06
  1.3048e+04   1.83e-06
  1.3584e+04   1.58e-06
  1.4141e+04   1.35e-06
  1.4722e+04   1.14e-06
  1.5326e+04   9.56e-07
  1.5955e+04   7.87e-07
  1.6610e+04   6.38e-07
  1.7292e+04   5.07e-07
  1.8002e+04   3.95e-07
  1.8741e+04   3.00e-07
  1.9511e+04   2.22e-07
  2.0312e+04   1.58e-07
  2.1145e+04   1.09e-07
  2.2013e+04   7.15e-08
  2.2917e+04   4.45e-08
  2.3858e+04   2.60e-08
  2.4837e+04   1.42e-08
  2.5857e+04   7.05e-09
  2.6919e+04   3.16e-09
  2.8024e+04   1.25e-09
  2.9174e+04   4.25e-10
  3.0372e+04   1.20e-10
  3.1619e+04   2.71e-11
  3.2917e+04   4.65e-12
  3.4268e+04   5.65e-13
  3.5675e+04   4.47e-14
  3.7140e+04   2.07e-15
  3.8664e+04   4.88e-17
  4.0252e+04   4.83e-19
  4.1904e+04   1.57e-21
  4.3624e+04   1.21e-24
  4.5415e+04   1.42e-28
  4.7280e+04   1.38e-33
  4.9221e+04   4.78e-40
  5.1241e+04   1.25e-46
  5.3345e+04   1.18e-46
  5.5535e+04   1.11e-46
  5.7815e+04   1.05e-46
  6.0188e+04   9.93e-47
  6.2659e+04   9.36e-47
  6.5232e+04   8.82e-47
  6.7910e+04   8.31e-47
  7.0698e+04   7.82e-47
  7.3600e+04   7.35e-47
  7.6621e+04   6.91e-47
  7.9767e+04   6.47e-47
  8.3042e+04   6.06e-47
  8.6451e+04   5.67e-47
  9.0000e+04   5.33e-47
