#  E [MeV]   Flux [# cm^{-2} s^{-1}  MeV^{-1}]
  3.0000e+04   2.01e-18
  3.0411e+04   1.95e-18
  3.0828e+04   1.90e-18
  3.1250e+04   1.84e-18
  3.1678e+04   1.79e-18
  3.2112e+04   1.73e-18
  3.2552e+04   1.68e-18
  3.2998e+04   1.63e-18
  3.3450e+04   1.58e-18
  3.3909e+04   1.53e-18
  3.4373e+04   1.49e-18
  3.4844e+04   1.44e-18
  3.5322e+04   1.40e-18
  3.5806e+04   1.36e-18
  3.6296e+04   1.31e-18
  3.6794e+04   1.27e-18
  3.7298e+04   1.23e-18
  3.7809e+04   1.20e-18
  3.8327e+04   1.16e-18
  3.8852e+04   1.12e-18
  3.9384e+04   1.09e-18
  3.9924e+04   1.05e-18
  4.0471e+04   1.02e-18
  4.1025e+04   9.87e-19
  4.1587e+04   9.56e-19
  4.2157e+04   9.25e-19
  4.2735e+04   8.95e-19
  4.3320e+04   8.66e-19
  4.3914e+04   8.37e-19
  4.4516e+04   8.10e-19
  4.5125e+04   7.84e-19
  4.5744e+04   7.59e-19
  4.6370e+04   7.34e-19
  4.7006e+04   7.09e-19
  4.7650e+04   6.85e-19
  4.8303e+04   6.62e-19
  4.8965e+04   6.39e-19
  4.9635e+04   6.17e-19
  5.0315e+04   5.97e-19
  5.1005e+04   5.77e-19
  5.1704e+04   5.57e-19
  5.2412e+04   5.38e-19
  5.3130e+04   5.19e-19
  5.3858e+04   5.01e-19
  5.4596e+04   4.83e-19
  5.5344e+04   4.66e-19
  5.6102e+04   4.49e-19
  5.6871e+04   4.34e-19
  5.7650e+04   4.19e-19
  5.8440e+04   4.04e-19
  5.9241e+04   3.90e-19
  6.0053e+04   3.76e-19
  6.0875e+04   3.62e-19
  6.1709e+04   3.48e-19
  6.2555e+04   3.36e-19
  6.3412e+04   3.24e-19
  6.4281e+04   3.12e-19
  6.5162e+04   3.01e-19
  6.6054e+04   2.90e-19
  6.6959e+04   2.79e-19
  6.7877e+04   2.69e-19
  6.8807e+04   2.58e-19
  6.9750e+04   2.48e-19
  7.0705e+04   2.39e-19
  7.1674e+04   2.30e-19
  7.2656e+04   2.22e-19
  7.3652e+04   2.13e-19
  7.4661e+04   2.05e-19
  7.5684e+04   1.97e-19
  7.6721e+04   1.89e-19
  7.7772e+04   1.82e-19
  7.8837e+04   1.74e-19
  7.9917e+04   1.68e-19
  8.1012e+04   1.61e-19
  8.2122e+04   1.55e-19
  8.3248e+04   1.49e-19
  8.4388e+04   1.43e-19
  8.5544e+04   1.37e-19
  8.6717e+04   1.31e-19
  8.7905e+04   1.26e-19
  8.9109e+04   1.21e-19
  9.0330e+04   1.16e-19
  9.1568e+04   1.11e-19
  9.2822e+04   1.07e-19
  9.4094e+04   1.02e-19
  9.5383e+04   9.77e-20
  9.6690e+04   9.34e-20
  9.8015e+04   8.92e-20
  9.9358e+04   8.54e-20
  1.0072e+05   8.19e-20
  1.0210e+05   7.84e-20
  1.0350e+05   7.51e-20
  1.0492e+05   7.18e-20
  1.0635e+05   6.86e-20
  1.0781e+05   6.55e-20
  1.0929e+05   6.24e-20
  1.1079e+05   5.94e-20
  1.1230e+05   5.69e-20
  1.1384e+05   5.44e-20
  1.1540e+05   5.20e-20
  1.1698e+05   4.97e-20
  1.1859e+05   4.74e-20
  1.2021e+05   4.51e-20
  1.2186e+05   4.29e-20
  1.2353e+05   4.08e-20
  1.2522e+05   3.89e-20
  1.2694e+05   3.71e-20
  1.2867e+05   3.54e-20
  1.3044e+05   3.38e-20
  1.3222e+05   3.21e-20
  1.3404e+05   3.06e-20
  1.3587e+05   2.90e-20
  1.3773e+05   2.75e-20
  1.3962e+05   2.61e-20
  1.4153e+05   2.49e-20
  1.4347e+05   2.37e-20
  1.4544e+05   2.25e-20
  1.4743e+05   2.14e-20
  1.4945e+05   2.03e-20
  1.5150e+05   1.93e-20
  1.5358e+05   1.82e-20
  1.5568e+05   1.72e-20
  1.5781e+05   1.63e-20
  1.5997e+05   1.55e-20
  1.6217e+05   1.48e-20
  1.6439e+05   1.40e-20
  1.6664e+05   1.33e-20
  1.6892e+05   1.25e-20
  1.7124e+05   1.18e-20
  1.7358e+05   1.11e-20
  1.7596e+05   1.05e-20
  1.7837e+05   9.96e-21
  1.8082e+05   9.44e-21
  1.8330e+05   8.93e-21
  1.8581e+05   8.43e-21
  1.8835e+05   7.95e-21
  1.9093e+05   7.47e-21
  1.9355e+05   7.01e-21
  1.9620e+05   6.56e-21
  1.9889e+05   6.19e-21
  2.0161e+05   5.85e-21
  2.0438e+05   5.53e-21
  2.0718e+05   5.21e-21
  2.1002e+05   4.90e-21
  2.1289e+05   4.59e-21
  2.1581e+05   4.30e-21
  2.1877e+05   4.01e-21
  2.2176e+05   3.74e-21
  2.2480e+05   3.53e-21
  2.2788e+05   3.33e-21
  2.3101e+05   3.13e-21
  2.3417e+05   2.94e-21
  2.3738e+05   2.75e-21
  2.4063e+05   2.57e-21
  2.4393e+05   2.39e-21
  2.4727e+05   2.21e-21
  2.5066e+05   2.08e-21
  2.5409e+05   1.96e-21
  2.5757e+05   1.84e-21
  2.6110e+05   1.72e-21
  2.6468e+05   1.61e-21
  2.6831e+05   1.50e-21
  2.7198e+05   1.39e-21
  2.7571e+05   1.28e-21
  2.7949e+05   1.19e-21
  2.8332e+05   1.12e-21
  2.8720e+05   1.04e-21
  2.9113e+05   9.75e-22
  2.9512e+05   9.08e-22
  2.9917e+05   8.42e-22
  3.0327e+05   7.77e-22
  3.0742e+05   7.14e-22
  3.1163e+05   6.53e-22
  3.1590e+05   6.10e-22
  3.2023e+05   5.70e-22
  3.2462e+05   5.31e-22
  3.2907e+05   4.93e-22
  3.3357e+05   4.56e-22
  3.3814e+05   4.20e-22
  3.4278e+05   3.85e-22
  3.4747e+05   3.51e-22
  3.5223e+05   3.22e-22
  3.5706e+05   3.00e-22
  3.6195e+05   2.78e-22
  3.6691e+05   2.57e-22
  3.7194e+05   2.37e-22
  3.7704e+05   2.17e-22
  3.8220e+05   1.98e-22
  3.8744e+05   1.79e-22
  3.9275e+05   1.61e-22
  3.9813e+05   1.49e-22
  4.0358e+05   1.37e-22
  4.0911e+05   1.26e-22
  4.1472e+05   1.15e-22
  4.2040e+05   1.05e-22
  4.2616e+05   9.45e-23
  4.3200e+05   8.46e-23
  4.3792e+05   7.49e-23
  4.4392e+05   6.79e-23
  4.5000e+05   6.37e-23
