#  E [MeV]   Flux [# cm^{-2} s^{-1}  MeV^{-1}]
  3.0000e+04   2.52e-22
  3.0872e+04   2.44e-22
  3.1770e+04   2.36e-22
  3.2694e+04   2.28e-22
  3.3644e+04   2.20e-22
  3.4623e+04   2.13e-22
  3.5629e+04   2.06e-22
  3.6665e+04   1.99e-22
  3.7731e+04   1.92e-22
  3.8829e+04   1.85e-22
  3.9958e+04   1.79e-22
  4.1119e+04   1.73e-22
  4.2315e+04   1.67e-22
  4.3545e+04   1.61e-22
  4.4812e+04   1.55e-22
  4.6115e+04   1.50e-22
  4.7456e+04   1.44e-22
  4.8835e+04   1.39e-22
  5.0255e+04   1.34e-22
  5.1717e+04   1.29e-22
  5.3220e+04   1.25e-22
  5.4768e+04   1.20e-22
  5.6360e+04   1.16e-22
  5.7999e+04   1.11e-22
  5.9686e+04   1.07e-22
  6.1421e+04   1.03e-22
  6.3207e+04   9.92e-23
  6.5045e+04   9.54e-23
  6.6936e+04   9.17e-23
  6.8882e+04   8.82e-23
  7.0885e+04   8.48e-23
  7.2947e+04   8.15e-23
  7.5068e+04   7.83e-23
  7.7250e+04   7.52e-23
  7.9496e+04   7.22e-23
  8.1808e+04   6.93e-23
  8.4187e+04   6.65e-23
  8.6635e+04   6.38e-23
  8.9154e+04   6.13e-23
  9.1746e+04   5.87e-23
  9.4414e+04   5.63e-23
  9.7159e+04   5.40e-23
  9.9984e+04   5.18e-23
  1.0289e+05   4.96e-23
  1.0588e+05   4.75e-23
  1.0896e+05   4.55e-23
  1.1213e+05   4.36e-23
  1.1539e+05   4.17e-23
  1.1875e+05   3.99e-23
  1.2220e+05   3.82e-23
  1.2575e+05   3.65e-23
  1.2941e+05   3.49e-23
  1.3317e+05   3.34e-23
  1.3704e+05   3.19e-23
  1.4103e+05   3.05e-23
  1.4513e+05   2.91e-23
  1.4935e+05   2.78e-23
  1.5369e+05   2.65e-23
  1.5816e+05   2.53e-23
  1.6276e+05   2.41e-23
  1.6749e+05   2.30e-23
  1.7236e+05   2.20e-23
  1.7737e+05   2.09e-23
  1.8253e+05   2.00e-23
  1.8784e+05   1.90e-23
  1.9330e+05   1.81e-23
  1.9892e+05   1.72e-23
  2.0470e+05   1.64e-23
  2.1066e+05   1.56e-23
  2.1678e+05   1.49e-23
  2.2309e+05   1.41e-23
  2.2957e+05   1.34e-23
  2.3625e+05   1.28e-23
  2.4312e+05   1.21e-23
  2.5019e+05   1.15e-23
  2.5746e+05   1.09e-23
  2.6495e+05   1.04e-23
  2.7265e+05   9.86e-24
  2.8058e+05   9.35e-24
  2.8874e+05   8.86e-24
  2.9713e+05   8.40e-24
  3.0577e+05   7.96e-24
  3.1466e+05   7.54e-24
  3.2381e+05   7.14e-24
  3.3323e+05   6.76e-24
  3.4292e+05   6.39e-24
  3.5289e+05   6.05e-24
  3.6315e+05   5.72e-24
  3.7371e+05   5.41e-24
  3.8457e+05   5.11e-24
  3.9576e+05   4.82e-24
  4.0726e+05   4.56e-24
  4.1911e+05   4.30e-24
  4.3129e+05   4.06e-24
  4.4383e+05   3.82e-24
  4.5674e+05   3.61e-24
  4.7002e+05   3.40e-24
  4.8368e+05   3.20e-24
  4.9775e+05   3.01e-24
  5.1222e+05   2.83e-24
  5.2712e+05   2.67e-24
  5.4244e+05   2.51e-24
  5.5821e+05   2.35e-24
  5.7445e+05   2.21e-24
  5.9115e+05   2.08e-24
  6.0834e+05   1.95e-24
  6.2603e+05   1.83e-24
  6.4423e+05   1.71e-24
  6.6296e+05   1.61e-24
  6.8224e+05   1.51e-24
  7.0208e+05   1.41e-24
  7.2249e+05   1.32e-24
  7.4350e+05   1.24e-24
  7.6512e+05   1.16e-24
  7.8736e+05   1.08e-24
  8.1026e+05   1.01e-24
  8.3382e+05   9.44e-25
  8.5806e+05   8.81e-25
  8.8301e+05   8.22e-25
  9.0869e+05   7.67e-25
  9.3511e+05   7.15e-25
  9.6230e+05   6.66e-25
  9.9028e+05   6.19e-25
  1.0191e+06   5.77e-25
  1.0487e+06   5.37e-25
  1.0792e+06   5.00e-25
  1.1106e+06   4.63e-25
  1.1429e+06   4.31e-25
  1.1761e+06   4.00e-25
  1.2103e+06   3.71e-25
  1.2455e+06   3.44e-25
  1.2817e+06   3.19e-25
  1.3190e+06   2.96e-25
  1.3573e+06   2.74e-25
  1.3968e+06   2.53e-25
  1.4374e+06   2.34e-25
  1.4792e+06   2.17e-25
  1.5222e+06   2.01e-25
  1.5665e+06   1.85e-25
  1.6120e+06   1.71e-25
  1.6589e+06   1.58e-25
  1.7071e+06   1.46e-25
  1.7568e+06   1.34e-25
  1.8079e+06   1.23e-25
  1.8604e+06   1.14e-25
  1.9145e+06   1.05e-25
  1.9702e+06   9.61e-26
  2.0275e+06   8.84e-26
  2.0864e+06   8.15e-26
  2.1471e+06   7.48e-26
  2.2095e+06   6.85e-26
  2.2738e+06   6.30e-26
  2.3399e+06   5.80e-26
  2.4079e+06   5.32e-26
  2.4779e+06   4.86e-26
  2.5500e+06   4.47e-26
  2.6241e+06   4.11e-26
  2.7004e+06   3.77e-26
  2.7790e+06   3.45e-26
  2.8598e+06   3.17e-26
  2.9429e+06   2.92e-26
  3.0285e+06   2.68e-26
  3.1165e+06   2.46e-26
  3.2072e+06   2.26e-26
  3.3004e+06   2.09e-26
  3.3964e+06   1.92e-26
  3.4951e+06   1.76e-26
  3.5968e+06   1.63e-26
  3.7013e+06   1.52e-26
  3.8090e+06   1.41e-26
  3.9197e+06   1.30e-26
  4.0337e+06   1.21e-26
  4.1510e+06   1.14e-26
  4.2717e+06   1.07e-26
  4.3959e+06   9.96e-27
  4.5237e+06   9.39e-27
  4.6552e+06   8.91e-27
  4.7906e+06   8.45e-27
  4.9299e+06   8.01e-27
  5.0732e+06   7.65e-27
  5.2208e+06   7.36e-27
  5.3726e+06   7.08e-27
  5.5288e+06   6.81e-27
  5.6895e+06   6.63e-27
  5.8550e+06   6.53e-27
  6.0252e+06   6.43e-27
  6.2004e+06   6.33e-27
  6.3807e+06   6.33e-27
  6.5662e+06   6.41e-27
  6.7572e+06   6.48e-27
  6.9536e+06   6.54e-27
  7.1558e+06   6.81e-27
  7.3639e+06   7.26e-27
  7.5780e+06   7.68e-27
  7.7984e+06   8.07e-27
  8.0251e+06   9.00e-27
  8.2585e+06   1.05e-26
  8.4986e+06   1.18e-26
  8.7457e+06   1.31e-26
  9.0000e+06   1.32e-26
