#  E [MeV]   Flux [# cm^{-2} s^{-1}  MeV^{-1}]
  3.0000e+04   3.76e-24
  3.0962e+04   3.61e-24
  3.1955e+04   3.47e-24
  3.2979e+04   3.33e-24
  3.4037e+04   3.19e-24
  3.5128e+04   3.06e-24
  3.6254e+04   2.94e-24
  3.7417e+04   2.82e-24
  3.8616e+04   2.71e-24
  3.9855e+04   2.60e-24
  4.1132e+04   2.49e-24
  4.2451e+04   2.39e-24
  4.3812e+04   2.29e-24
  4.5217e+04   2.20e-24
  4.6667e+04   2.11e-24
  4.8163e+04   2.02e-24
  4.9707e+04   1.94e-24
  5.1301e+04   1.86e-24
  5.2946e+04   1.78e-24
  5.4644e+04   1.71e-24
  5.6396e+04   1.64e-24
  5.8204e+04   1.57e-24
  6.0070e+04   1.50e-24
  6.1996e+04   1.44e-24
  6.3984e+04   1.38e-24
  6.6035e+04   1.32e-24
  6.8153e+04   1.26e-24
  7.0338e+04   1.21e-24
  7.2593e+04   1.16e-24
  7.4921e+04   1.11e-24
  7.7323e+04   1.06e-24
  7.9802e+04   1.02e-24
  8.2361e+04   9.72e-25
  8.5002e+04   9.30e-25
  8.7727e+04   8.90e-25
  9.0540e+04   8.51e-25
  9.3443e+04   8.14e-25
  9.6439e+04   7.78e-25
  9.9531e+04   7.44e-25
  1.0272e+05   7.11e-25
  1.0602e+05   6.79e-25
  1.0942e+05   6.49e-25
  1.1292e+05   6.20e-25
  1.1654e+05   5.92e-25
  1.2028e+05   5.65e-25
  1.2414e+05   5.39e-25
  1.2812e+05   5.15e-25
  1.3223e+05   4.91e-25
  1.3646e+05   4.68e-25
  1.4084e+05   4.46e-25
  1.4536e+05   4.25e-25
  1.5002e+05   4.05e-25
  1.5483e+05   3.86e-25
  1.5979e+05   3.67e-25
  1.6491e+05   3.49e-25
  1.7020e+05   3.32e-25
  1.7566e+05   3.16e-25
  1.8129e+05   3.00e-25
  1.8710e+05   2.85e-25
  1.9310e+05   2.70e-25
  1.9929e+05   2.56e-25
  2.0568e+05   2.43e-25
  2.1228e+05   2.30e-25
  2.1909e+05   2.18e-25
  2.2611e+05   2.06e-25
  2.3336e+05   1.95e-25
  2.4084e+05   1.84e-25
  2.4856e+05   1.74e-25
  2.5653e+05   1.64e-25
  2.6476e+05   1.55e-25
  2.7325e+05   1.47e-25
  2.8201e+05   1.39e-25
  2.9105e+05   1.31e-25
  3.0038e+05   1.23e-25
  3.1002e+05   1.16e-25
  3.1996e+05   1.10e-25
  3.3021e+05   1.03e-25
  3.4080e+05   9.71e-26
  3.5173e+05   9.14e-26
  3.6301e+05   8.60e-26
  3.7465e+05   8.08e-26
  3.8666e+05   7.59e-26
  3.9905e+05   7.12e-26
  4.1185e+05   6.68e-26
  4.2506e+05   6.25e-26
  4.3868e+05   5.86e-26
  4.5275e+05   5.48e-26
  4.6727e+05   5.12e-26
  4.8225e+05   4.79e-26
  4.9771e+05   4.47e-26
  5.1367e+05   4.17e-26
  5.3014e+05   3.89e-26
  5.4714e+05   3.62e-26
  5.6468e+05   3.38e-26
  5.8278e+05   3.14e-26
  6.0147e+05   2.92e-26
  6.2075e+05   2.71e-26
  6.4066e+05   2.52e-26
  6.6120e+05   2.34e-26
  6.8240e+05   2.16e-26
  7.0428e+05   2.01e-26
  7.2686e+05   1.86e-26
  7.5017e+05   1.72e-26
  7.7422e+05   1.59e-26
  7.9904e+05   1.47e-26
  8.2466e+05   1.35e-26
  8.5110e+05   1.25e-26
  8.7839e+05   1.15e-26
  9.0656e+05   1.06e-26
  9.3562e+05   9.74e-27
  9.6562e+05   8.94e-27
  9.9658e+05   8.23e-27
  1.0285e+06   7.56e-27
  1.0615e+06   6.93e-27
  1.0956e+06   6.34e-27
  1.1307e+06   5.82e-27
  1.1669e+06   5.32e-27
  1.2043e+06   4.86e-27
  1.2430e+06   4.44e-27
  1.2828e+06   4.06e-27
  1.3239e+06   3.70e-27
  1.3664e+06   3.37e-27
  1.4102e+06   3.07e-27
  1.4554e+06   2.80e-27
  1.5021e+06   2.54e-27
  1.5502e+06   2.31e-27
  1.6000e+06   2.10e-27
  1.6513e+06   1.90e-27
  1.7042e+06   1.71e-27
  1.7588e+06   1.55e-27
  1.8152e+06   1.40e-27
  1.8734e+06   1.26e-27
  1.9335e+06   1.13e-27
  1.9955e+06   1.03e-27
  2.0595e+06   9.23e-28
  2.1255e+06   8.27e-28
  2.1937e+06   7.40e-28
  2.2640e+06   6.66e-28
  2.3366e+06   5.96e-28
  2.4115e+06   5.30e-28
  2.4888e+06   4.75e-28
  2.5686e+06   4.25e-28
  2.6510e+06   3.77e-28
  2.7360e+06   3.33e-28
  2.8237e+06   2.98e-28
  2.9142e+06   2.65e-28
  3.0077e+06   2.34e-28
  3.1041e+06   2.06e-28
  3.2036e+06   1.83e-28
  3.3064e+06   1.61e-28
  3.4124e+06   1.41e-28
  3.5218e+06   1.24e-28
  3.6347e+06   1.09e-28
  3.7512e+06   9.55e-29
  3.8715e+06   8.27e-29
  3.9957e+06   7.29e-29
  4.1238e+06   6.37e-29
  4.2560e+06   5.51e-29
  4.3924e+06   4.78e-29
  4.5333e+06   4.18e-29
  4.6786e+06   3.62e-29
  4.8286e+06   3.09e-29
  4.9835e+06   2.69e-29
  5.1433e+06   2.33e-29
  5.3082e+06   2.00e-29
  5.4784e+06   1.70e-29
  5.6540e+06   1.48e-29
  5.8353e+06   1.27e-29
  6.0224e+06   1.08e-29
  6.2155e+06   9.24e-30
  6.4148e+06   7.97e-30
  6.6205e+06   6.80e-30
  6.8327e+06   5.72e-30
  7.0518e+06   4.93e-30
  7.2779e+06   4.24e-30
  7.5113e+06   3.60e-30
  7.7521e+06   3.04e-30
  8.0007e+06   2.63e-30
  8.2572e+06   2.26e-30
  8.5219e+06   1.91e-30
  8.7952e+06   1.63e-30
  9.0772e+06   1.41e-30
  9.3682e+06   1.20e-30
  9.6686e+06   1.02e-30
  9.9786e+06   8.82e-31
  1.0299e+07   7.62e-31
  1.0629e+07   6.52e-31
  1.0970e+07   5.57e-31
  1.1321e+07   4.82e-31
  1.1684e+07   4.14e-31
  1.2059e+07   3.53e-31
  1.2446e+07   3.00e-31
  1.2845e+07   2.54e-31
  1.3256e+07   2.14e-31
  1.3681e+07   1.77e-31
  1.4120e+07   1.46e-31
  1.4573e+07   1.19e-31
  1.5040e+07   9.61e-32
  1.5522e+07   7.68e-32
  1.6020e+07   6.14e-32
