#  E [GeV]   # per interaction  [GeV^{-1}]
  3.0000e+01   6.37e-01
  3.1232e+01   6.10e-01
  3.2514e+01   5.83e-01
  3.3849e+01   5.58e-01
  3.5238e+01   5.33e-01
  3.6685e+01   5.10e-01
  3.8191e+01   4.87e-01
  3.9759e+01   4.66e-01
  4.1391e+01   4.45e-01
  4.3090e+01   4.26e-01
  4.4859e+01   4.07e-01
  4.6701e+01   3.89e-01
  4.8618e+01   3.72e-01
  5.0614e+01   3.55e-01
  5.2692e+01   3.39e-01
  5.4855e+01   3.24e-01
  5.7107e+01   3.10e-01
  5.9451e+01   2.96e-01
  6.1892e+01   2.83e-01
  6.4433e+01   2.70e-01
  6.7078e+01   2.58e-01
  6.9832e+01   2.46e-01
  7.2699e+01   2.35e-01
  7.5683e+01   2.24e-01
  7.8790e+01   2.14e-01
  8.2025e+01   2.04e-01
  8.5392e+01   1.95e-01
  8.8898e+01   1.86e-01
  9.2547e+01   1.77e-01
  9.6347e+01   1.69e-01
  1.0030e+02   1.61e-01
  1.0442e+02   1.54e-01
  1.0871e+02   1.47e-01
  1.1317e+02   1.40e-01
  1.1782e+02   1.33e-01
  1.2265e+02   1.27e-01
  1.2769e+02   1.21e-01
  1.3293e+02   1.15e-01
  1.3839e+02   1.10e-01
  1.4407e+02   1.04e-01
  1.4998e+02   9.92e-02
  1.5614e+02   9.44e-02
  1.6255e+02   8.97e-02
  1.6922e+02   8.53e-02
  1.7617e+02   8.10e-02
  1.8340e+02   7.70e-02
  1.9093e+02   7.31e-02
  1.9877e+02   6.93e-02
  2.0693e+02   6.58e-02
  2.1543e+02   6.23e-02
  2.2427e+02   5.91e-02
  2.3348e+02   5.59e-02
  2.4306e+02   5.29e-02
  2.5304e+02   5.01e-02
  2.6343e+02   4.73e-02
  2.7424e+02   4.47e-02
  2.8550e+02   4.22e-02
  2.9722e+02   3.98e-02
  3.0942e+02   3.75e-02
  3.2213e+02   3.53e-02
  3.3535e+02   3.33e-02
  3.4912e+02   3.13e-02
  3.6345e+02   2.94e-02
  3.7837e+02   2.76e-02
  3.9390e+02   2.59e-02
  4.1008e+02   2.43e-02
  4.2691e+02   2.27e-02
  4.4444e+02   2.13e-02
  4.6268e+02   1.99e-02
  4.8168e+02   1.86e-02
  5.0145e+02   1.73e-02
  5.2204e+02   1.62e-02
  5.4347e+02   1.51e-02
  5.6578e+02   1.40e-02
  5.8901e+02   1.30e-02
  6.1319e+02   1.21e-02
  6.3836e+02   1.13e-02
  6.6457e+02   1.05e-02
  6.9185e+02   9.70e-03
  7.2025e+02   8.99e-03
  7.4982e+02   8.34e-03
  7.8061e+02   7.72e-03
  8.1265e+02   7.15e-03
  8.4601e+02   6.62e-03
  8.8075e+02   6.13e-03
  9.1690e+02   5.67e-03
  9.5455e+02   5.24e-03
  9.9373e+02   4.85e-03
  1.0345e+03   4.48e-03
  1.0770e+03   4.15e-03
  1.1212e+03   3.83e-03
  1.1672e+03   3.54e-03
  1.2152e+03   3.27e-03
  1.2650e+03   3.02e-03
  1.3170e+03   2.79e-03
  1.3711e+03   2.58e-03
  1.4273e+03   2.38e-03
  1.4859e+03   2.20e-03
  1.5469e+03   2.03e-03
  1.6104e+03   1.88e-03
  1.6766e+03   1.73e-03
  1.7454e+03   1.60e-03
  1.8170e+03   1.48e-03
  1.8916e+03   1.37e-03
  1.9693e+03   1.26e-03
  2.0501e+03   1.16e-03
  2.1343e+03   1.07e-03
  2.2219e+03   9.88e-04
  2.3131e+03   9.10e-04
  2.4081e+03   8.37e-04
  2.5070e+03   7.70e-04
  2.6099e+03   7.08e-04
  2.7170e+03   6.50e-04
  2.8286e+03   5.97e-04
  2.9447e+03   5.48e-04
  3.0656e+03   5.02e-04
  3.1914e+03   4.59e-04
  3.3225e+03   4.20e-04
  3.4589e+03   3.83e-04
  3.6008e+03   3.50e-04
  3.7487e+03   3.18e-04
  3.9026e+03   2.90e-04
  4.0628e+03   2.63e-04
  4.2296e+03   2.38e-04
  4.4032e+03   2.16e-04
  4.5840e+03   1.95e-04
  4.7722e+03   1.75e-04
  4.9681e+03   1.58e-04
  5.1720e+03   1.41e-04
  5.3844e+03   1.26e-04
  5.6054e+03   1.13e-04
  5.8355e+03   1.00e-04
  6.0751e+03   8.89e-05
  6.3245e+03   7.87e-05
  6.5841e+03   6.93e-05
  6.8544e+03   6.08e-05
  7.1358e+03   5.32e-05
  7.4288e+03   4.62e-05
  7.7338e+03   4.01e-05
  8.0513e+03   3.46e-05
  8.3818e+03   2.96e-05
  8.7259e+03   2.52e-05
  9.0841e+03   2.14e-05
  9.4571e+03   1.79e-05
  9.8453e+03   1.50e-05
  1.0249e+04   1.24e-05
  1.0670e+04   1.01e-05
  1.1108e+04   8.24e-06
  1.1564e+04   6.61e-06
  1.2039e+04   5.22e-06
  1.2533e+04   4.10e-06
  1.3048e+04   3.16e-06
  1.3584e+04   2.38e-06
  1.4141e+04   1.78e-06
  1.4722e+04   1.29e-06
  1.5326e+04   9.17e-07
  1.5955e+04   6.37e-07
  1.6610e+04   4.27e-07
  1.7292e+04   2.77e-07
  1.8002e+04   1.73e-07
  1.8741e+04   1.03e-07
  1.9511e+04   5.82e-08
  2.0312e+04   3.11e-08
  2.1145e+04   1.54e-08
  2.2013e+04   7.12e-09
  2.2917e+04   2.98e-09
  2.3858e+04   1.11e-09
  2.4837e+04   3.69e-10
  2.5857e+04   1.04e-10
  2.6919e+04   2.43e-11
  2.8024e+04   4.63e-12
  2.9174e+04   6.71e-13
  3.0372e+04   7.01e-14
  3.1619e+04   5.02e-15
  3.2917e+04   2.20e-16
  3.4268e+04   5.28e-18
  3.5675e+04   6.11e-20
  3.7140e+04   2.75e-22
  3.8664e+04   3.80e-25
  4.0252e+04   1.18e-28
  4.1904e+04   5.18e-33
  4.3624e+04   1.86e-38
  4.5415e+04   2.48e-45
  4.7280e+04   3.63e-47
  4.9221e+04   3.05e-47
  5.1241e+04   2.56e-47
  5.3345e+04   2.10e-47
  5.5535e+04   1.77e-47
  5.7815e+04   1.47e-47
  6.0188e+04   1.20e-47
  6.2659e+04   1.01e-47
  6.5232e+04   8.27e-48
  6.7910e+04   6.65e-48
  7.0698e+04   5.53e-48
  7.3600e+04   4.48e-48
  7.6621e+04   3.56e-48
  7.9767e+04   2.83e-48
  8.3042e+04   2.16e-48
  8.6451e+04   1.60e-48
  9.0000e+04   1.15e-48
