#  E [GeV]   # per interaction  [GeV^{-1}]
  3.0000e+01   2.26e-02
  3.1051e+01   2.17e-02
  3.2139e+01   2.09e-02
  3.3266e+01   2.01e-02
  3.4432e+01   1.94e-02
  3.5638e+01   1.86e-02
  3.6887e+01   1.79e-02
  3.8180e+01   1.72e-02
  3.9518e+01   1.65e-02
  4.0903e+01   1.59e-02
  4.2336e+01   1.52e-02
  4.3820e+01   1.46e-02
  4.5355e+01   1.40e-02
  4.6945e+01   1.35e-02
  4.8590e+01   1.29e-02
  5.0293e+01   1.24e-02
  5.2055e+01   1.19e-02
  5.3879e+01   1.14e-02
  5.5767e+01   1.09e-02
  5.7722e+01   1.05e-02
  5.9745e+01   1.00e-02
  6.1838e+01   9.61e-03
  6.4005e+01   9.20e-03
  6.6248e+01   8.81e-03
  6.8570e+01   8.44e-03
  7.0973e+01   8.07e-03
  7.3460e+01   7.72e-03
  7.6034e+01   7.39e-03
  7.8699e+01   7.06e-03
  8.1457e+01   6.75e-03
  8.4311e+01   6.45e-03
  8.7266e+01   6.16e-03
  9.0324e+01   5.89e-03
  9.3490e+01   5.62e-03
  9.6766e+01   5.37e-03
  1.0016e+02   5.12e-03
  1.0367e+02   4.89e-03
  1.0730e+02   4.66e-03
  1.1106e+02   4.44e-03
  1.1495e+02   4.24e-03
  1.1898e+02   4.04e-03
  1.2315e+02   3.84e-03
  1.2747e+02   3.66e-03
  1.3193e+02   3.49e-03
  1.3656e+02   3.32e-03
  1.4134e+02   3.16e-03
  1.4629e+02   3.00e-03
  1.5142e+02   2.85e-03
  1.5673e+02   2.71e-03
  1.6222e+02   2.58e-03
  1.6790e+02   2.45e-03
  1.7379e+02   2.32e-03
  1.7988e+02   2.20e-03
  1.8618e+02   2.09e-03
  1.9271e+02   1.98e-03
  1.9946e+02   1.88e-03
  2.0645e+02   1.78e-03
  2.1369e+02   1.69e-03
  2.2117e+02   1.59e-03
  2.2892e+02   1.51e-03
  2.3695e+02   1.43e-03
  2.4525e+02   1.35e-03
  2.5385e+02   1.27e-03
  2.6274e+02   1.20e-03
  2.7195e+02   1.13e-03
  2.8148e+02   1.07e-03
  2.9134e+02   1.01e-03
  3.0155e+02   9.49e-04
  3.1212e+02   8.94e-04
  3.2306e+02   8.41e-04
  3.3438e+02   7.91e-04
  3.4610e+02   7.44e-04
  3.5823e+02   6.99e-04
  3.7078e+02   6.56e-04
  3.8377e+02   6.15e-04
  3.9722e+02   5.77e-04
  4.1114e+02   5.41e-04
  4.2555e+02   5.06e-04
  4.4046e+02   4.74e-04
  4.5590e+02   4.43e-04
  4.7188e+02   4.14e-04
  4.8841e+02   3.87e-04
  5.0553e+02   3.62e-04
  5.2324e+02   3.38e-04
  5.4158e+02   3.16e-04
  5.6056e+02   2.94e-04
  5.8020e+02   2.75e-04
  6.0054e+02   2.56e-04
  6.2158e+02   2.39e-04
  6.4337e+02   2.23e-04
  6.6591e+02   2.07e-04
  6.8925e+02   1.93e-04
  7.1340e+02   1.80e-04
  7.3840e+02   1.68e-04
  7.6428e+02   1.56e-04
  7.9106e+02   1.46e-04
  8.1878e+02   1.36e-04
  8.4748e+02   1.26e-04
  8.7718e+02   1.18e-04
  9.0792e+02   1.10e-04
  9.3973e+02   1.03e-04
  9.7267e+02   9.57e-05
  1.0068e+03   8.94e-05
  1.0420e+03   8.35e-05
  1.0785e+03   7.80e-05
  1.1163e+03   7.29e-05
  1.1555e+03   6.82e-05
  1.1960e+03   6.38e-05
  1.2379e+03   5.98e-05
  1.2813e+03   5.60e-05
  1.3262e+03   5.25e-05
  1.3726e+03   4.93e-05
  1.4207e+03   4.62e-05
  1.4705e+03   4.34e-05
  1.5220e+03   4.08e-05
  1.5754e+03   3.84e-05
  1.6306e+03   3.61e-05
  1.6877e+03   3.40e-05
  1.7469e+03   3.20e-05
  1.8081e+03   3.02e-05
  1.8715e+03   2.84e-05
  1.9370e+03   2.68e-05
  2.0049e+03   2.53e-05
  2.0752e+03   2.39e-05
  2.1479e+03   2.26e-05
  2.2232e+03   2.14e-05
  2.3011e+03   2.02e-05
  2.3817e+03   1.91e-05
  2.4652e+03   1.81e-05
  2.5516e+03   1.71e-05
  2.6410e+03   1.62e-05
  2.7336e+03   1.53e-05
  2.8294e+03   1.45e-05
  2.9285e+03   1.37e-05
  3.0311e+03   1.29e-05
  3.1374e+03   1.22e-05
  3.2473e+03   1.16e-05
  3.3611e+03   1.09e-05
  3.4789e+03   1.03e-05
  3.6008e+03   9.75e-06
  3.7270e+03   9.21e-06
  3.8576e+03   8.69e-06
  3.9928e+03   8.19e-06
  4.1327e+03   7.72e-06
  4.2775e+03   7.26e-06
  4.4274e+03   6.83e-06
  4.5826e+03   6.42e-06
  4.7432e+03   6.02e-06
  4.9094e+03   5.64e-06
  5.0815e+03   5.28e-06
  5.2595e+03   4.93e-06
  5.4438e+03   4.60e-06
  5.6346e+03   4.28e-06
  5.8321e+03   3.97e-06
  6.0365e+03   3.68e-06
  6.2480e+03   3.40e-06
  6.4670e+03   3.13e-06
  6.6936e+03   2.88e-06
  6.9282e+03   2.64e-06
  7.1709e+03   2.41e-06
  7.4222e+03   2.20e-06
  7.6823e+03   2.00e-06
  7.9516e+03   1.80e-06
  8.2302e+03   1.62e-06
  8.5186e+03   1.45e-06
  8.8172e+03   1.30e-06
  9.1262e+03   1.15e-06
  9.4460e+03   1.01e-06
  9.7770e+03   8.86e-07
  1.0120e+04   7.71e-07
  1.0474e+04   6.65e-07
  1.0841e+04   5.68e-07
  1.1221e+04   4.81e-07
  1.1614e+04   4.03e-07
  1.2022e+04   3.35e-07
  1.2443e+04   2.74e-07
  1.2879e+04   2.22e-07
  1.3330e+04   1.76e-07
  1.3797e+04   1.38e-07
  1.4281e+04   1.06e-07
  1.4781e+04   8.03e-08
  1.5299e+04   5.93e-08
  1.5835e+04   4.27e-08
  1.6390e+04   3.00e-08
  1.6965e+04   2.04e-08
  1.7559e+04   1.34e-08
  1.8175e+04   8.48e-09
  1.8812e+04   5.14e-09
  1.9471e+04   2.97e-09
  2.0153e+04   1.62e-09
  2.0859e+04   8.30e-10
  2.1590e+04   3.97e-10
  2.2347e+04   1.75e-10
  2.3130e+04   7.00e-11
  2.3941e+04   2.52e-11
  2.4780e+04   8.01e-12
  2.5648e+04   2.21e-12
  2.6547e+04   5.15e-13
  2.7477e+04   9.97e-14
  2.8440e+04   1.54e-14
