#  E [MeV]   Flux [# cm^{-2} s^{-1}  MeV^{-1}]
  3.0000e+04   3.42e-25
  3.1141e+04   3.26e-25
  3.2326e+04   3.12e-25
  3.3556e+04   2.98e-25
  3.4832e+04   2.84e-25
  3.6157e+04   2.71e-25
  3.7533e+04   2.59e-25
  3.8961e+04   2.47e-25
  4.0443e+04   2.36e-25
  4.1982e+04   2.25e-25
  4.3579e+04   2.15e-25
  4.5237e+04   2.05e-25
  4.6958e+04   1.95e-25
  4.8744e+04   1.86e-25
  5.0598e+04   1.78e-25
  5.2523e+04   1.69e-25
  5.4521e+04   1.61e-25
  5.6596e+04   1.54e-25
  5.8749e+04   1.46e-25
  6.0984e+04   1.39e-25
  6.3304e+04   1.33e-25
  6.5712e+04   1.26e-25
  6.8212e+04   1.20e-25
  7.0807e+04   1.15e-25
  7.3500e+04   1.09e-25
  7.6297e+04   1.04e-25
  7.9199e+04   9.87e-26
  8.2212e+04   9.38e-26
  8.5340e+04   8.92e-26
  8.8586e+04   8.48e-26
  9.1956e+04   8.06e-26
  9.5455e+04   7.66e-26
  9.9086e+04   7.28e-26
  1.0286e+05   6.92e-26
  1.0677e+05   6.57e-26
  1.1083e+05   6.24e-26
  1.1505e+05   5.93e-26
  1.1942e+05   5.62e-26
  1.2397e+05   5.34e-26
  1.2868e+05   5.06e-26
  1.3358e+05   4.80e-26
  1.3866e+05   4.56e-26
  1.4394e+05   4.32e-26
  1.4941e+05   4.09e-26
  1.5509e+05   3.88e-26
  1.6100e+05   3.67e-26
  1.6712e+05   3.48e-26
  1.7348e+05   3.29e-26
  1.8008e+05   3.11e-26
  1.8693e+05   2.94e-26
  1.9404e+05   2.78e-26
  2.0142e+05   2.63e-26
  2.0908e+05   2.49e-26
  2.1704e+05   2.35e-26
  2.2529e+05   2.21e-26
  2.3387e+05   2.09e-26
  2.4276e+05   1.97e-26
  2.5200e+05   1.86e-26
  2.6158e+05   1.75e-26
  2.7154e+05   1.64e-26
  2.8187e+05   1.55e-26
  2.9259e+05   1.45e-26
  3.0372e+05   1.36e-26
  3.1527e+05   1.28e-26
  3.2727e+05   1.20e-26
  3.3972e+05   1.13e-26
  3.5264e+05   1.05e-26
  3.6606e+05   9.86e-27
  3.7998e+05   9.21e-27
  3.9444e+05   8.61e-27
  4.0945e+05   8.03e-27
  4.2502e+05   7.49e-27
  4.4119e+05   6.97e-27
  4.5798e+05   6.49e-27
  4.7540e+05   6.03e-27
  4.9348e+05   5.60e-27
  5.1226e+05   5.20e-27
  5.3175e+05   4.82e-27
  5.5198e+05   4.46e-27
  5.7297e+05   4.13e-27
  5.9477e+05   3.81e-27
  6.1740e+05   3.52e-27
  6.4089e+05   3.25e-27
  6.6527e+05   2.99e-27
  6.9058e+05   2.76e-27
  7.1685e+05   2.54e-27
  7.4412e+05   2.34e-27
  7.7243e+05   2.15e-27
  8.0181e+05   1.98e-27
  8.3232e+05   1.82e-27
  8.6398e+05   1.68e-27
  8.9685e+05   1.54e-27
  9.3097e+05   1.42e-27
  9.6638e+05   1.30e-27
  1.0031e+06   1.20e-27
  1.0413e+06   1.10e-27
  1.0809e+06   1.01e-27
  1.1220e+06   9.30e-28
  1.1647e+06   8.54e-28
  1.2090e+06   7.84e-28
  1.2550e+06   7.20e-28
  1.3028e+06   6.61e-28
  1.3523e+06   6.07e-28
  1.4038e+06   5.57e-28
  1.4572e+06   5.11e-28
  1.5126e+06   4.68e-28
  1.5702e+06   4.30e-28
  1.6299e+06   3.94e-28
  1.6919e+06   3.61e-28
  1.7563e+06   3.30e-28
  1.8231e+06   3.02e-28
  1.8925e+06   2.77e-28
  1.9645e+06   2.53e-28
  2.0392e+06   2.31e-28
  2.1168e+06   2.11e-28
  2.1973e+06   1.93e-28
  2.2809e+06   1.76e-28
  2.3677e+06   1.60e-28
  2.4577e+06   1.46e-28
  2.5512e+06   1.33e-28
  2.6483e+06   1.20e-28
  2.7490e+06   1.09e-28
  2.8536e+06   9.88e-29
  2.9622e+06   8.91e-29
  3.0749e+06   8.05e-29
  3.1918e+06   7.26e-29
  3.3133e+06   6.52e-29
  3.4393e+06   5.86e-29
  3.5702e+06   5.26e-29
  3.7060e+06   4.69e-29
  3.8470e+06   4.19e-29
  3.9933e+06   3.74e-29
  4.1452e+06   3.31e-29
  4.3029e+06   2.94e-29
  4.4666e+06   2.60e-29
  4.6366e+06   2.29e-29
  4.8129e+06   2.01e-29
  4.9960e+06   1.76e-29
  5.1861e+06   1.53e-29
  5.3834e+06   1.33e-29
  5.5882e+06   1.16e-29
  5.8008e+06   9.96e-30
  6.0215e+06   8.54e-30
  6.2506e+06   7.34e-30
  6.4883e+06   6.25e-30
  6.7352e+06   5.28e-30
  6.9914e+06   4.48e-30
  7.2574e+06   3.76e-30
  7.5335e+06   3.12e-30
  7.8201e+06   2.61e-30
  8.1176e+06   2.15e-30
  8.4264e+06   1.75e-30
  8.7470e+06   1.43e-30
  9.0797e+06   1.16e-30
  9.4251e+06   9.20e-31
  9.7837e+06   7.36e-31
  1.0156e+07   5.79e-31
  1.0542e+07   4.46e-31
  1.0943e+07   3.46e-31
  1.1360e+07   2.64e-31
  1.1792e+07   1.96e-31
  1.2240e+07   1.46e-31
  1.2706e+07   1.07e-31
  1.3189e+07   7.60e-32
  1.3691e+07   5.36e-32
  1.4212e+07   3.71e-32
  1.4753e+07   2.48e-32
  1.5314e+07   1.63e-32
  1.5897e+07   1.05e-32
  1.6501e+07   6.43e-33
  1.7129e+07   3.84e-33
  1.7781e+07   2.22e-33
  1.8457e+07   1.21e-33
  1.9159e+07   6.29e-34
  1.9888e+07   3.13e-34
  2.0645e+07   1.43e-34
  2.1430e+07   6.08e-35
  2.2245e+07   2.41e-35
  2.3092e+07   8.50e-36
  2.3970e+07   2.66e-36
  2.4882e+07   7.39e-37
  2.5829e+07   1.73e-37
  2.6811e+07   3.31e-38
  2.7831e+07   5.17e-39
  2.8890e+07   6.10e-40
  2.9989e+07   5.18e-41
  3.1130e+07   3.05e-42
  3.2314e+07   1.12e-43
  3.3544e+07   2.31e-45
  3.4820e+07   2.42e-47
  3.6144e+07   1.07e-49
  3.7519e+07   1.65e-52
  3.8947e+07   6.90e-56
  4.0428e+07   5.58e-60
  4.1966e+07   5.69e-65
  4.3563e+07   4.19e-71
  4.5220e+07   1.96e-72
  4.6941e+07   1.71e-72
  4.8726e+07   1.52e-72
  5.0580e+07   1.34e-72
