#  E [MeV]   Flux [# cm^{-2} s^{-1}  MeV^{-1}]
  3.0000e+04   7.52e-20
  3.1123e+04   7.23e-20
  3.2288e+04   6.96e-20
  3.3497e+04   6.69e-20
  3.4751e+04   6.43e-20
  3.6051e+04   6.19e-20
  3.7401e+04   5.95e-20
  3.8801e+04   5.72e-20
  4.0253e+04   5.50e-20
  4.1760e+04   5.28e-20
  4.3324e+04   5.08e-20
  4.4945e+04   4.88e-20
  4.6628e+04   4.69e-20
  4.8373e+04   4.51e-20
  5.0184e+04   4.33e-20
  5.2063e+04   4.16e-20
  5.4011e+04   4.00e-20
  5.6033e+04   3.84e-20
  5.8131e+04   3.69e-20
  6.0307e+04   3.54e-20
  6.2564e+04   3.40e-20
  6.4906e+04   3.26e-20
  6.7336e+04   3.13e-20
  6.9857e+04   3.01e-20
  7.2472e+04   2.88e-20
  7.5184e+04   2.77e-20
  7.7999e+04   2.65e-20
  8.0919e+04   2.55e-20
  8.3948e+04   2.44e-20
  8.7090e+04   2.34e-20
  9.0350e+04   2.24e-20
  9.3732e+04   2.15e-20
  9.7241e+04   2.06e-20
  1.0088e+05   1.97e-20
  1.0466e+05   1.89e-20
  1.0858e+05   1.81e-20
  1.1264e+05   1.73e-20
  1.1686e+05   1.66e-20
  1.2123e+05   1.59e-20
  1.2577e+05   1.52e-20
  1.3048e+05   1.45e-20
  1.3536e+05   1.39e-20
  1.4043e+05   1.33e-20
  1.4568e+05   1.27e-20
  1.5114e+05   1.21e-20
  1.5680e+05   1.16e-20
  1.6266e+05   1.10e-20
  1.6875e+05   1.05e-20
  1.7507e+05   1.00e-20
  1.8162e+05   9.55e-21
  1.8842e+05   9.10e-21
  1.9548e+05   8.67e-21
  2.0279e+05   8.26e-21
  2.1039e+05   7.86e-21
  2.1826e+05   7.48e-21
  2.2643e+05   7.11e-21
  2.3491e+05   6.75e-21
  2.4370e+05   6.41e-21
  2.5282e+05   6.09e-21
  2.6229e+05   5.78e-21
  2.7211e+05   5.48e-21
  2.8229e+05   5.19e-21
  2.9286e+05   4.92e-21
  3.0382e+05   4.65e-21
  3.1519e+05   4.40e-21
  3.2699e+05   4.16e-21
  3.3923e+05   3.93e-21
  3.5193e+05   3.71e-21
  3.6511e+05   3.50e-21
  3.7877e+05   3.30e-21
  3.9295e+05   3.11e-21
  4.0766e+05   2.93e-21
  4.2292e+05   2.75e-21
  4.3875e+05   2.59e-21
  4.5518e+05   2.43e-21
  4.7222e+05   2.28e-21
  4.8989e+05   2.14e-21
  5.0823e+05   2.01e-21
  5.2726e+05   1.88e-21
  5.4699e+05   1.76e-21
  5.6747e+05   1.65e-21
  5.8871e+05   1.54e-21
  6.1075e+05   1.44e-21
  6.3361e+05   1.35e-21
  6.5733e+05   1.26e-21
  6.8194e+05   1.17e-21
  7.0746e+05   1.09e-21
  7.3395e+05   1.02e-21
  7.6142e+05   9.50e-22
  7.8992e+05   8.84e-22
  8.1949e+05   8.23e-22
  8.5017e+05   7.65e-22
  8.8199e+05   7.12e-22
  9.1501e+05   6.61e-22
  9.4926e+05   6.14e-22
  9.8479e+05   5.70e-22
  1.0217e+06   5.29e-22
  1.0599e+06   4.91e-22
  1.0996e+06   4.55e-22
  1.1407e+06   4.22e-22
  1.1834e+06   3.90e-22
  1.2277e+06   3.61e-22
  1.2737e+06   3.34e-22
  1.3214e+06   3.09e-22
  1.3708e+06   2.85e-22
  1.4222e+06   2.64e-22
  1.4754e+06   2.43e-22
  1.5306e+06   2.24e-22
  1.5879e+06   2.07e-22
  1.6474e+06   1.91e-22
  1.7090e+06   1.76e-22
  1.7730e+06   1.62e-22
  1.8394e+06   1.49e-22
  1.9082e+06   1.37e-22
  1.9797e+06   1.26e-22
  2.0538e+06   1.16e-22
  2.1306e+06   1.06e-22
  2.2104e+06   9.72e-23
  2.2931e+06   8.91e-23
  2.3790e+06   8.15e-23
  2.4680e+06   7.44e-23
  2.5604e+06   6.81e-23
  2.6563e+06   6.22e-23
  2.7557e+06   5.66e-23
  2.8589e+06   5.17e-23
  2.9659e+06   4.70e-23
  3.0769e+06   4.27e-23
  3.1921e+06   3.88e-23
  3.3116e+06   3.53e-23
  3.4355e+06   3.19e-23
  3.5641e+06   2.89e-23
  3.6976e+06   2.62e-23
  3.8360e+06   2.36e-23
  3.9796e+06   2.13e-23
  4.1285e+06   1.92e-23
  4.2831e+06   1.73e-23
  4.4434e+06   1.55e-23
  4.6097e+06   1.39e-23
  4.7823e+06   1.25e-23
  4.9613e+06   1.11e-23
  5.1470e+06   9.95e-24
  5.3397e+06   8.86e-24
  5.5396e+06   7.86e-24
  5.7470e+06   7.00e-24
  5.9621e+06   6.20e-24
  6.1853e+06   5.47e-24
  6.4168e+06   4.85e-24
  6.6570e+06   4.27e-24
  6.9062e+06   3.74e-24
  7.1647e+06   3.30e-24
  7.4329e+06   2.89e-24
  7.7112e+06   2.51e-24
  7.9998e+06   2.19e-24
  8.2993e+06   1.91e-24
  8.6100e+06   1.64e-24
  8.9323e+06   1.42e-24
  9.2666e+06   1.23e-24
  9.6135e+06   1.05e-24
  9.9734e+06   8.95e-25
  1.0347e+07   7.64e-25
  1.0734e+07   6.46e-25
  1.1136e+07   5.44e-25
  1.1553e+07   4.59e-25
  1.1985e+07   3.82e-25
  1.2434e+07   3.16e-25
  1.2899e+07   2.62e-25
  1.3382e+07   2.15e-25
  1.3883e+07   1.74e-25
  1.4403e+07   1.41e-25
  1.4942e+07   1.13e-25
  1.5501e+07   8.89e-26
  1.6081e+07   7.04e-26
  1.6683e+07   5.46e-26
  1.7308e+07   4.13e-26
  1.7956e+07   3.14e-26
  1.8628e+07   2.33e-26
  1.9325e+07   1.68e-26
  2.0049e+07   1.20e-26
  2.0799e+07   8.34e-27
  2.1578e+07   5.57e-27
  2.2386e+07   3.65e-27
  2.3224e+07   2.30e-27
  2.4093e+07   1.38e-27
  2.4995e+07   7.90e-28
  2.5930e+07   4.31e-28
  2.6901e+07   2.17e-28
  2.7908e+07   1.01e-28
  2.8953e+07   4.34e-29
  3.0037e+07   1.65e-29
  3.1161e+07   5.43e-30
  3.2327e+07   1.55e-30
  3.3537e+07   3.57e-31
  3.4793e+07   6.43e-32
  3.6095e+07   8.75e-33
  3.7446e+07   8.16e-34
  3.8848e+07   4.77e-35
  4.0302e+07   1.59e-36
  4.1811e+07   2.55e-38
  4.3376e+07   1.62e-40
  4.5000e+07   3.23e-43
