#  E [MeV]   Flux [# cm^{-2} s^{-1}  MeV^{-1}]
  3.0000e+04   4.19e-25
  3.1141e+04   4.00e-25
  3.2326e+04   3.83e-25
  3.3556e+04   3.66e-25
  3.4832e+04   3.50e-25
  3.6157e+04   3.34e-25
  3.7533e+04   3.19e-25
  3.8961e+04   3.05e-25
  4.0443e+04   2.91e-25
  4.1982e+04   2.78e-25
  4.3579e+04   2.65e-25
  4.5237e+04   2.53e-25
  4.6958e+04   2.41e-25
  4.8744e+04   2.30e-25
  5.0598e+04   2.20e-25
  5.2523e+04   2.10e-25
  5.4521e+04   2.00e-25
  5.6596e+04   1.90e-25
  5.8749e+04   1.82e-25
  6.0984e+04   1.73e-25
  6.3304e+04   1.65e-25
  6.5712e+04   1.57e-25
  6.8212e+04   1.50e-25
  7.0807e+04   1.42e-25
  7.3500e+04   1.36e-25
  7.6297e+04   1.29e-25
  7.9199e+04   1.23e-25
  8.2212e+04   1.17e-25
  8.5340e+04   1.11e-25
  8.8586e+04   1.06e-25
  9.1956e+04   1.01e-25
  9.5455e+04   9.56e-26
  9.9086e+04   9.08e-26
  1.0286e+05   8.63e-26
  1.0677e+05   8.19e-26
  1.1083e+05   7.78e-26
  1.1505e+05   7.39e-26
  1.1942e+05   7.01e-26
  1.2397e+05   6.65e-26
  1.2868e+05   6.31e-26
  1.3358e+05   5.98e-26
  1.3866e+05   5.67e-26
  1.4394e+05   5.37e-26
  1.4941e+05   5.08e-26
  1.5509e+05   4.81e-26
  1.6100e+05   4.55e-26
  1.6712e+05   4.31e-26
  1.7348e+05   4.07e-26
  1.8008e+05   3.85e-26
  1.8693e+05   3.63e-26
  1.9404e+05   3.43e-26
  2.0142e+05   3.23e-26
  2.0908e+05   3.05e-26
  2.1704e+05   2.87e-26
  2.2529e+05   2.71e-26
  2.3387e+05   2.55e-26
  2.4276e+05   2.40e-26
  2.5200e+05   2.25e-26
  2.6158e+05   2.11e-26
  2.7154e+05   1.98e-26
  2.8187e+05   1.86e-26
  2.9259e+05   1.74e-26
  3.0372e+05   1.63e-26
  3.1527e+05   1.52e-26
  3.2727e+05   1.42e-26
  3.3972e+05   1.33e-26
  3.5264e+05   1.24e-26
  3.6606e+05   1.15e-26
  3.7998e+05   1.07e-26
  3.9444e+05   9.99e-27
  4.0945e+05   9.28e-27
  4.2502e+05   8.61e-27
  4.4119e+05   7.98e-27
  4.5798e+05   7.39e-27
  4.7540e+05   6.83e-27
  4.9348e+05   6.32e-27
  5.1226e+05   5.84e-27
  5.3175e+05   5.38e-27
  5.5198e+05   4.96e-27
  5.7297e+05   4.57e-27
  5.9477e+05   4.21e-27
  6.1740e+05   3.87e-27
  6.4089e+05   3.56e-27
  6.6527e+05   3.27e-27
  6.9058e+05   3.00e-27
  7.1685e+05   2.75e-27
  7.4412e+05   2.52e-27
  7.7243e+05   2.31e-27
  8.0181e+05   2.12e-27
  8.3232e+05   1.94e-27
  8.6398e+05   1.77e-27
  8.9685e+05   1.62e-27
  9.3097e+05   1.48e-27
  9.6638e+05   1.36e-27
  1.0031e+06   1.24e-27
  1.0413e+06   1.13e-27
  1.0809e+06   1.04e-27
  1.1220e+06   9.46e-28
  1.1647e+06   8.64e-28
  1.2090e+06   7.89e-28
  1.2550e+06   7.20e-28
  1.3028e+06   6.57e-28
  1.3523e+06   5.99e-28
  1.4038e+06   5.47e-28
  1.4572e+06   4.98e-28
  1.5126e+06   4.54e-28
  1.5702e+06   4.14e-28
  1.6299e+06   3.77e-28
  1.6919e+06   3.43e-28
  1.7563e+06   3.13e-28
  1.8231e+06   2.84e-28
  1.8925e+06   2.59e-28
  1.9645e+06   2.35e-28
  2.0392e+06   2.14e-28
  2.1168e+06   1.94e-28
  2.1973e+06   1.76e-28
  2.2809e+06   1.60e-28
  2.3677e+06   1.44e-28
  2.4577e+06   1.31e-28
  2.5512e+06   1.18e-28
  2.6483e+06   1.06e-28
  2.7490e+06   9.59e-29
  2.8536e+06   8.63e-29
  2.9622e+06   7.74e-29
  3.0749e+06   6.96e-29
  3.1918e+06   6.24e-29
  3.3133e+06   5.57e-29
  3.4393e+06   4.98e-29
  3.5702e+06   4.44e-29
  3.7060e+06   3.94e-29
  3.8470e+06   3.51e-29
  3.9933e+06   3.11e-29
  4.1452e+06   2.74e-29
  4.3029e+06   2.42e-29
  4.4666e+06   2.13e-29
  4.6366e+06   1.87e-29
  4.8129e+06   1.64e-29
  4.9960e+06   1.43e-29
  5.1861e+06   1.24e-29
  5.3834e+06   1.07e-29
  5.5882e+06   9.30e-30
  5.8008e+06   7.98e-30
  6.0215e+06   6.83e-30
  6.2506e+06   5.86e-30
  6.4883e+06   4.97e-30
  6.7352e+06   4.20e-30
  6.9914e+06   3.55e-30
  7.2574e+06   2.98e-30
  7.5335e+06   2.47e-30
  7.8201e+06   2.06e-30
  8.1176e+06   1.70e-30
  8.4264e+06   1.39e-30
  8.7470e+06   1.14e-30
  9.0797e+06   9.18e-31
  9.4251e+06   7.31e-31
  9.7837e+06   5.85e-31
  1.0156e+07   4.61e-31
  1.0542e+07   3.56e-31
  1.0943e+07   2.77e-31
  1.1360e+07   2.11e-31
  1.1792e+07   1.58e-31
  1.2240e+07   1.18e-31
  1.2706e+07   8.64e-32
  1.3189e+07   6.16e-32
  1.3691e+07   4.37e-32
  1.4212e+07   3.03e-32
  1.4753e+07   2.04e-32
  1.5314e+07   1.35e-32
  1.5897e+07   8.65e-33
  1.6501e+07   5.33e-33
  1.7129e+07   3.19e-33
  1.7781e+07   1.84e-33
  1.8457e+07   1.00e-33
  1.9159e+07   5.21e-34
  1.9888e+07   2.56e-34
  2.0645e+07   1.16e-34
  2.1430e+07   4.89e-35
  2.2245e+07   1.89e-35
  2.3092e+07   6.49e-36
  2.3970e+07   1.96e-36
  2.4882e+07   5.16e-37
  2.5829e+07   1.13e-37
  2.6811e+07   2.02e-38
  2.7831e+07   2.84e-39
  2.8890e+07   2.98e-40
  2.9989e+07   2.20e-41
  3.1130e+07   1.08e-42
  3.2314e+07   3.21e-44
  3.3544e+07   5.18e-46
  3.4820e+07   4.02e-48
  3.6144e+07   1.26e-50
  3.7519e+07   1.29e-53
  3.8947e+07   3.28e-57
  4.0428e+07   1.48e-61
  4.1966e+07   7.61e-67
  4.3563e+07   5.97e-72
  4.5220e+07   5.39e-72
  4.6941e+07   4.84e-72
  4.8726e+07   4.43e-72
  5.0580e+07   4.06e-72
