#  E [MeV]   Flux [# cm^{-2} s^{-1}  MeV^{-1}]
  3.0000e+04   8.68e-26
  3.1232e+04   8.27e-26
  3.2514e+04   7.88e-26
  3.3849e+04   7.51e-26
  3.5238e+04   7.15e-26
  3.6685e+04   6.81e-26
  3.8191e+04   6.49e-26
  3.9759e+04   6.18e-26
  4.1391e+04   5.88e-26
  4.3090e+04   5.60e-26
  4.4859e+04   5.32e-26
  4.6701e+04   5.06e-26
  4.8618e+04   4.82e-26
  5.0614e+04   4.58e-26
  5.2692e+04   4.36e-26
  5.4855e+04   4.14e-26
  5.7107e+04   3.93e-26
  5.9451e+04   3.74e-26
  6.1892e+04   3.55e-26
  6.4433e+04   3.37e-26
  6.7078e+04   3.20e-26
  6.9832e+04   3.04e-26
  7.2699e+04   2.89e-26
  7.5683e+04   2.74e-26
  7.8790e+04   2.60e-26
  8.2025e+04   2.46e-26
  8.5392e+04   2.34e-26
  8.8898e+04   2.22e-26
  9.2547e+04   2.10e-26
  9.6347e+04   1.99e-26
  1.0030e+05   1.88e-26
  1.0442e+05   1.79e-26
  1.0871e+05   1.69e-26
  1.1317e+05   1.60e-26
  1.1782e+05   1.51e-26
  1.2265e+05   1.43e-26
  1.2769e+05   1.35e-26
  1.3293e+05   1.28e-26
  1.3839e+05   1.21e-26
  1.4407e+05   1.14e-26
  1.4998e+05   1.08e-26
  1.5614e+05   1.02e-26
  1.6255e+05   9.61e-27
  1.6922e+05   9.07e-27
  1.7617e+05   8.55e-27
  1.8340e+05   8.05e-27
  1.9093e+05   7.58e-27
  1.9877e+05   7.14e-27
  2.0693e+05   6.71e-27
  2.1543e+05   6.31e-27
  2.2427e+05   5.93e-27
  2.3348e+05   5.57e-27
  2.4306e+05   5.22e-27
  2.5304e+05   4.90e-27
  2.6343e+05   4.59e-27
  2.7424e+05   4.30e-27
  2.8550e+05   4.02e-27
  2.9722e+05   3.76e-27
  3.0942e+05   3.51e-27
  3.2213e+05   3.27e-27
  3.3535e+05   3.05e-27
  3.4912e+05   2.84e-27
  3.6345e+05   2.64e-27
  3.7837e+05   2.46e-27
  3.9390e+05   2.28e-27
  4.1008e+05   2.12e-27
  4.2691e+05   1.96e-27
  4.4444e+05   1.82e-27
  4.6268e+05   1.68e-27
  4.8168e+05   1.55e-27
  5.0145e+05   1.44e-27
  5.2204e+05   1.32e-27
  5.4347e+05   1.22e-27
  5.6578e+05   1.12e-27
  5.8901e+05   1.04e-27
  6.1319e+05   9.52e-28
  6.3836e+05   8.75e-28
  6.6457e+05   8.03e-28
  6.9185e+05   7.37e-28
  7.2025e+05   6.76e-28
  7.4982e+05   6.20e-28
  7.8061e+05   5.68e-28
  8.1265e+05   5.20e-28
  8.4601e+05   4.76e-28
  8.8075e+05   4.36e-28
  9.1690e+05   3.99e-28
  9.5455e+05   3.65e-28
  9.9373e+05   3.34e-28
  1.0345e+06   3.05e-28
  1.0770e+06   2.79e-28
  1.1212e+06   2.55e-28
  1.1672e+06   2.33e-28
  1.2152e+06   2.13e-28
  1.2650e+06   1.95e-28
  1.3170e+06   1.78e-28
  1.3711e+06   1.63e-28
  1.4273e+06   1.49e-28
  1.4859e+06   1.37e-28
  1.5469e+06   1.25e-28
  1.6104e+06   1.15e-28
  1.6766e+06   1.05e-28
  1.7454e+06   9.64e-29
  1.8170e+06   8.83e-29
  1.8916e+06   8.09e-29
  1.9693e+06   7.42e-29
  2.0501e+06   6.79e-29
  2.1343e+06   6.22e-29
  2.2219e+06   5.69e-29
  2.3131e+06   5.20e-29
  2.4081e+06   4.75e-29
  2.5070e+06   4.33e-29
  2.6099e+06   3.95e-29
  2.7170e+06   3.60e-29
  2.8286e+06   3.27e-29
  2.9447e+06   2.97e-29
  3.0656e+06   2.70e-29
  3.1914e+06   2.44e-29
  3.3225e+06   2.21e-29
  3.4589e+06   2.00e-29
  3.6008e+06   1.80e-29
  3.7487e+06   1.61e-29
  3.9026e+06   1.45e-29
  4.0628e+06   1.30e-29
  4.2296e+06   1.16e-29
  4.4032e+06   1.03e-29
  4.5840e+06   9.11e-30
  4.7722e+06   8.05e-30
  4.9681e+06   7.09e-30
  5.1720e+06   6.21e-30
  5.3844e+06   5.43e-30
  5.6054e+06   4.73e-30
  5.8355e+06   4.09e-30
  6.0751e+06   3.52e-30
  6.3245e+06   3.02e-30
  6.5841e+06   2.57e-30
  6.8544e+06   2.18e-30
  7.1358e+06   1.83e-30
  7.4288e+06   1.53e-30
  7.7338e+06   1.27e-30
  8.0513e+06   1.04e-30
  8.3818e+06   8.49e-31
  8.7259e+06   6.87e-31
  9.0841e+06   5.48e-31
  9.4571e+06   4.31e-31
  9.8453e+06   3.37e-31
  1.0249e+07   2.59e-31
  1.0670e+07   1.96e-31
  1.1108e+07   1.46e-31
  1.1564e+07   1.07e-31
  1.2039e+07   7.67e-32
  1.2533e+07   5.40e-32
  1.3048e+07   3.68e-32
  1.3584e+07   2.46e-32
  1.4141e+07   1.59e-32
  1.4722e+07   9.90e-33
  1.5326e+07   5.99e-33
  1.5955e+07   3.46e-33
  1.6610e+07   1.88e-33
  1.7292e+07   9.89e-34
  1.8002e+07   4.82e-34
  1.8741e+07   2.18e-34
  1.9511e+07   9.20e-35
  2.0312e+07   3.50e-35
  2.1145e+07   1.19e-35
  2.2013e+07   3.62e-36
  2.2917e+07   9.39e-37
  2.3858e+07   2.05e-37
  2.4837e+07   3.70e-38
  2.5857e+07   5.19e-39
  2.6919e+07   5.52e-40
  2.8024e+07   4.21e-41
  2.9174e+07   2.10e-42
  3.0372e+07   6.56e-44
  3.1619e+07   1.13e-45
  3.2917e+07   9.31e-48
  3.4268e+07   3.24e-50
  3.5675e+07   3.74e-53
  3.7140e+07   1.09e-56
  3.8664e+07   5.96e-61
  4.0252e+07   3.75e-66
  4.1904e+07   1.79e-72
  4.3624e+07   1.57e-72
  4.5415e+07   1.36e-72
  4.7280e+07   1.17e-72
  4.9221e+07   1.04e-72
  5.1241e+07   9.08e-73
  5.3345e+07   8.00e-73
  5.5535e+07   7.15e-73
  5.7815e+07   6.35e-73
  6.0188e+07   5.67e-73
  6.2659e+07   5.10e-73
  6.5232e+07   4.56e-73
  6.7910e+07   4.08e-73
  7.0698e+07   3.65e-73
  7.3600e+07   3.25e-73
  7.6621e+07   2.86e-73
  7.9767e+07   2.50e-73
  8.3042e+07   2.16e-73
  8.6451e+07   1.89e-73
  9.0000e+07   1.64e-73
