#  E [MeV]   Flux [# cm^{-2} s^{-1}  MeV^{-1}]
  3.0000e+04   3.86e-20
  3.1123e+04   3.70e-20
  3.2288e+04   3.53e-20
  3.3497e+04   3.38e-20
  3.4751e+04   3.23e-20
  3.6051e+04   3.09e-20
  3.7401e+04   2.95e-20
  3.8801e+04   2.82e-20
  4.0253e+04   2.69e-20
  4.1760e+04   2.57e-20
  4.3324e+04   2.46e-20
  4.4945e+04   2.35e-20
  4.6628e+04   2.24e-20
  4.8373e+04   2.14e-20
  5.0184e+04   2.04e-20
  5.2063e+04   1.95e-20
  5.4011e+04   1.86e-20
  5.6033e+04   1.77e-20
  5.8131e+04   1.69e-20
  6.0307e+04   1.61e-20
  6.2564e+04   1.54e-20
  6.4906e+04   1.47e-20
  6.7336e+04   1.40e-20
  6.9857e+04   1.33e-20
  7.2472e+04   1.27e-20
  7.5184e+04   1.21e-20
  7.7999e+04   1.15e-20
  8.0919e+04   1.09e-20
  8.3948e+04   1.04e-20
  8.7090e+04   9.92e-21
  9.0350e+04   9.44e-21
  9.3732e+04   8.98e-21
  9.7241e+04   8.54e-21
  1.0088e+05   8.12e-21
  1.0466e+05   7.72e-21
  1.0858e+05   7.33e-21
  1.1264e+05   6.97e-21
  1.1686e+05   6.62e-21
  1.2123e+05   6.29e-21
  1.2577e+05   5.97e-21
  1.3048e+05   5.66e-21
  1.3536e+05   5.37e-21
  1.4043e+05   5.10e-21
  1.4568e+05   4.83e-21
  1.5114e+05   4.58e-21
  1.5680e+05   4.34e-21
  1.6266e+05   4.11e-21
  1.6875e+05   3.89e-21
  1.7507e+05   3.68e-21
  1.8162e+05   3.48e-21
  1.8842e+05   3.29e-21
  1.9548e+05   3.11e-21
  2.0279e+05   2.94e-21
  2.1039e+05   2.78e-21
  2.1826e+05   2.62e-21
  2.2643e+05   2.47e-21
  2.3491e+05   2.33e-21
  2.4370e+05   2.19e-21
  2.5282e+05   2.07e-21
  2.6229e+05   1.94e-21
  2.7211e+05   1.83e-21
  2.8229e+05   1.72e-21
  2.9286e+05   1.61e-21
  3.0382e+05   1.51e-21
  3.1519e+05   1.42e-21
  3.2699e+05   1.33e-21
  3.3923e+05   1.24e-21
  3.5193e+05   1.16e-21
  3.6511e+05   1.09e-21
  3.7877e+05   1.01e-21
  3.9295e+05   9.46e-22
  4.0766e+05   8.82e-22
  4.2292e+05   8.21e-22
  4.3875e+05   7.64e-22
  4.5518e+05   7.11e-22
  4.7222e+05   6.60e-22
  4.8989e+05   6.13e-22
  5.0823e+05   5.69e-22
  5.2726e+05   5.27e-22
  5.4699e+05   4.88e-22
  5.6747e+05   4.52e-22
  5.8871e+05   4.18e-22
  6.1075e+05   3.87e-22
  6.3361e+05   3.57e-22
  6.5733e+05   3.30e-22
  6.8194e+05   3.04e-22
  7.0746e+05   2.81e-22
  7.3395e+05   2.59e-22
  7.6142e+05   2.38e-22
  7.8992e+05   2.19e-22
  8.1949e+05   2.02e-22
  8.5017e+05   1.85e-22
  8.8199e+05   1.71e-22
  9.1501e+05   1.57e-22
  9.4926e+05   1.44e-22
  9.8479e+05   1.32e-22
  1.0217e+06   1.21e-22
  1.0599e+06   1.11e-22
  1.0996e+06   1.02e-22
  1.1407e+06   9.37e-23
  1.1834e+06   8.58e-23
  1.2277e+06   7.86e-23
  1.2737e+06   7.20e-23
  1.3214e+06   6.58e-23
  1.3708e+06   6.02e-23
  1.4222e+06   5.51e-23
  1.4754e+06   5.04e-23
  1.5306e+06   4.60e-23
  1.5879e+06   4.21e-23
  1.6474e+06   3.84e-23
  1.7090e+06   3.50e-23
  1.7730e+06   3.20e-23
  1.8394e+06   2.91e-23
  1.9082e+06   2.65e-23
  1.9797e+06   2.42e-23
  2.0538e+06   2.20e-23
  2.1306e+06   1.99e-23
  2.2104e+06   1.81e-23
  2.2931e+06   1.65e-23
  2.3790e+06   1.49e-23
  2.4680e+06   1.35e-23
  2.5604e+06   1.22e-23
  2.6563e+06   1.10e-23
  2.7557e+06   9.94e-24
  2.8589e+06   8.97e-24
  2.9659e+06   8.06e-24
  3.0769e+06   7.25e-24
  3.1921e+06   6.51e-24
  3.3116e+06   5.83e-24
  3.4355e+06   5.21e-24
  3.5641e+06   4.67e-24
  3.6976e+06   4.16e-24
  3.8360e+06   3.70e-24
  3.9796e+06   3.30e-24
  4.1285e+06   2.92e-24
  4.2831e+06   2.58e-24
  4.4434e+06   2.29e-24
  4.6097e+06   2.01e-24
  4.7823e+06   1.76e-24
  4.9613e+06   1.55e-24
  5.1470e+06   1.36e-24
  5.3397e+06   1.18e-24
  5.5396e+06   1.03e-24
  5.7470e+06   8.96e-25
  5.9621e+06   7.72e-25
  6.1853e+06   6.68e-25
  6.4168e+06   5.76e-25
  6.6570e+06   4.92e-25
  6.9062e+06   4.21e-25
  7.1647e+06   3.60e-25
  7.4329e+06   3.04e-25
  7.7112e+06   2.57e-25
  7.9998e+06   2.17e-25
  8.2993e+06   1.81e-25
  8.6100e+06   1.51e-25
  8.9323e+06   1.26e-25
  9.2666e+06   1.03e-25
  9.6135e+06   8.42e-26
  9.9734e+06   6.91e-26
  1.0347e+07   5.59e-26
  1.0734e+07   4.46e-26
  1.1136e+07   3.59e-26
  1.1553e+07   2.84e-26
  1.1985e+07   2.21e-26
  1.2434e+07   1.73e-26
  1.2899e+07   1.33e-26
  1.3382e+07   1.00e-26
  1.3883e+07   7.59e-27
  1.4403e+07   5.63e-27
  1.4942e+07   4.07e-27
  1.5501e+07   2.93e-27
  1.6081e+07   2.06e-27
  1.6683e+07   1.41e-27
  1.7308e+07   9.42e-28
  1.7956e+07   6.17e-28
  1.8628e+07   3.87e-28
  1.9325e+07   2.35e-28
  2.0049e+07   1.38e-28
  2.0799e+07   7.62e-29
  2.1578e+07   3.98e-29
  2.2386e+07   1.96e-29
  2.3224e+07   8.89e-30
  2.4093e+07   3.66e-30
  2.4995e+07   1.37e-30
  2.5930e+07   4.47e-31
  2.6901e+07   1.25e-31
  2.7908e+07   2.98e-32
  2.8953e+07   5.71e-33
  3.0037e+07   8.49e-34
  3.1161e+07   9.37e-35
  3.2327e+07   7.17e-36
  3.3537e+07   3.51e-37
  3.4793e+07   9.98e-39
  3.6095e+07   1.46e-40
  3.7446e+07   9.35e-43
  3.8848e+07   2.16e-45
  4.0302e+07   1.39e-48
  4.1811e+07   1.78e-52
  4.3376e+07   3.00e-57
  4.5000e+07   3.76e-63
