#  E [MeV]   Flux [# cm^{-2} s^{-1}  MeV^{-1}]
  3.0000e+04   2.00e-22
  3.0782e+04   1.93e-22
  3.1585e+04   1.86e-22
  3.2409e+04   1.79e-22
  3.3255e+04   1.72e-22
  3.4122e+04   1.66e-22
  3.5012e+04   1.60e-22
  3.5925e+04   1.54e-22
  3.6862e+04   1.48e-22
  3.7824e+04   1.42e-22
  3.8810e+04   1.37e-22
  3.9822e+04   1.32e-22
  4.0861e+04   1.26e-22
  4.1927e+04   1.22e-22
  4.3021e+04   1.17e-22
  4.4143e+04   1.12e-22
  4.5294e+04   1.08e-22
  4.6475e+04   1.03e-22
  4.7688e+04   9.93e-23
  4.8931e+04   9.53e-23
  5.0208e+04   9.15e-23
  5.1517e+04   8.78e-23
  5.2861e+04   8.42e-23
  5.4240e+04   8.07e-23
  5.5654e+04   7.74e-23
  5.7106e+04   7.42e-23
  5.8596e+04   7.12e-23
  6.0124e+04   6.82e-23
  6.1692e+04   6.53e-23
  6.3301e+04   6.26e-23
  6.4952e+04   5.99e-23
  6.6647e+04   5.74e-23
  6.8385e+04   5.49e-23
  7.0169e+04   5.26e-23
  7.1999e+04   5.03e-23
  7.3877e+04   4.81e-23
  7.5804e+04   4.61e-23
  7.7781e+04   4.40e-23
  7.9810e+04   4.21e-23
  8.1891e+04   4.02e-23
  8.4027e+04   3.85e-23
  8.6219e+04   3.67e-23
  8.8468e+04   3.51e-23
  9.0775e+04   3.35e-23
  9.3143e+04   3.20e-23
  9.5572e+04   3.05e-23
  9.8065e+04   2.91e-23
  1.0062e+05   2.78e-23
  1.0325e+05   2.65e-23
  1.0594e+05   2.53e-23
  1.0870e+05   2.41e-23
  1.1154e+05   2.29e-23
  1.1445e+05   2.18e-23
  1.1743e+05   2.08e-23
  1.2050e+05   1.98e-23
  1.2364e+05   1.88e-23
  1.2686e+05   1.79e-23
  1.3017e+05   1.70e-23
  1.3357e+05   1.62e-23
  1.3705e+05   1.54e-23
  1.4063e+05   1.46e-23
  1.4429e+05   1.39e-23
  1.4806e+05   1.32e-23
  1.5192e+05   1.25e-23
  1.5588e+05   1.18e-23
  1.5995e+05   1.12e-23
  1.6412e+05   1.06e-23
  1.6840e+05   1.01e-23
  1.7279e+05   9.53e-24
  1.7730e+05   9.01e-24
  1.8193e+05   8.53e-24
  1.8667e+05   8.07e-24
  1.9154e+05   7.63e-24
  1.9654e+05   7.20e-24
  2.0166e+05   6.80e-24
  2.0692e+05   6.43e-24
  2.1232e+05   6.07e-24
  2.1786e+05   5.72e-24
  2.2354e+05   5.39e-24
  2.2937e+05   5.08e-24
  2.3535e+05   4.79e-24
  2.4149e+05   4.51e-24
  2.4779e+05   4.24e-24
  2.5425e+05   3.99e-24
  2.6088e+05   3.75e-24
  2.6769e+05   3.52e-24
  2.7467e+05   3.30e-24
  2.8184e+05   3.10e-24
  2.8919e+05   2.91e-24
  2.9673e+05   2.73e-24
  3.0447e+05   2.55e-24
  3.1241e+05   2.39e-24
  3.2056e+05   2.24e-24
  3.2892e+05   2.09e-24
  3.3750e+05   1.96e-24
  3.4630e+05   1.83e-24
  3.5533e+05   1.70e-24
  3.6460e+05   1.59e-24
  3.7411e+05   1.49e-24
  3.8387e+05   1.38e-24
  3.9388e+05   1.29e-24
  4.0416e+05   1.20e-24
  4.1470e+05   1.12e-24
  4.2551e+05   1.04e-24
  4.3661e+05   9.64e-25
  4.4800e+05   8.95e-25
  4.5969e+05   8.33e-25
  4.7168e+05   7.73e-25
  4.8398e+05   7.16e-25
  4.9660e+05   6.61e-25
  5.0956e+05   6.14e-25
  5.2285e+05   5.69e-25
  5.3648e+05   5.26e-25
  5.5048e+05   4.84e-25
  5.6483e+05   4.47e-25
  5.7957e+05   4.14e-25
  5.9468e+05   3.82e-25
  6.1020e+05   3.51e-25
  6.2611e+05   3.22e-25
  6.4244e+05   2.97e-25
  6.5920e+05   2.74e-25
  6.7639e+05   2.52e-25
  6.9403e+05   2.30e-25
  7.1214e+05   2.12e-25
  7.3071e+05   1.95e-25
  7.4977e+05   1.79e-25
  7.6933e+05   1.63e-25
  7.8939e+05   1.49e-25
  8.0998e+05   1.37e-25
  8.3111e+05   1.26e-25
  8.5279e+05   1.15e-25
  8.7503e+05   1.04e-25
  8.9785e+05   9.53e-26
  9.2127e+05   8.73e-26
  9.4530e+05   7.97e-26
  9.6996e+05   7.24e-26
  9.9526e+05   6.56e-26
  1.0212e+06   6.00e-26
  1.0479e+06   5.47e-26
  1.0752e+06   4.97e-26
  1.1032e+06   4.49e-26
  1.1320e+06   4.08e-26
  1.1615e+06   3.72e-26
  1.1918e+06   3.38e-26
  1.2229e+06   3.05e-26
  1.2548e+06   2.75e-26
  1.2875e+06   2.51e-26
  1.3211e+06   2.28e-26
  1.3556e+06   2.06e-26
  1.3909e+06   1.85e-26
  1.4272e+06   1.68e-26
  1.4644e+06   1.53e-26
  1.5026e+06   1.38e-26
  1.5418e+06   1.24e-26
  1.5820e+06   1.12e-26
  1.6233e+06   1.02e-26
  1.6657e+06   9.26e-27
  1.7091e+06   8.36e-27
  1.7537e+06   7.50e-27
  1.7994e+06   6.83e-27
  1.8464e+06   6.22e-27
  1.8945e+06   5.63e-27
  1.9439e+06   5.08e-27
  1.9946e+06   4.59e-27
  2.0467e+06   4.20e-27
  2.1000e+06   3.83e-27
  2.1548e+06   3.48e-27
  2.2110e+06   3.14e-27
  2.2687e+06   2.88e-27
  2.3279e+06   2.65e-27
  2.3886e+06   2.42e-27
  2.4509e+06   2.20e-27
  2.5148e+06   2.01e-27
  2.5804e+06   1.86e-27
  2.6477e+06   1.72e-27
  2.7168e+06   1.58e-27
  2.7876e+06   1.45e-27
  2.8603e+06   1.34e-27
  2.9349e+06   1.25e-27
  3.0115e+06   1.15e-27
  3.0900e+06   1.07e-27
  3.1706e+06   9.88e-28
  3.2533e+06   9.23e-28
  3.3382e+06   8.61e-28
  3.4253e+06   8.01e-28
  3.5146e+06   7.44e-28
  3.6063e+06   6.97e-28
  3.7003e+06   6.53e-28
  3.7969e+06   6.10e-28
  3.8959e+06   5.69e-28
  3.9975e+06   5.31e-28
  4.1018e+06   4.95e-28
  4.2088e+06   4.62e-28
  4.3185e+06   4.29e-28
  4.4312e+06   3.98e-28
  4.5467e+06   3.69e-28
  4.6653e+06   3.42e-28
  4.7870e+06   3.16e-28
  4.9119e+06   2.91e-28
  5.0400e+06   2.70e-28
