#  E [GeV]   # per interaction  [GeV^{-1}]
  3.0000e+01   1.09e+00
  3.1141e+01   1.04e+00
  3.2326e+01   9.96e-01
  3.3556e+01   9.51e-01
  3.4832e+01   9.08e-01
  3.6157e+01   8.67e-01
  3.7533e+01   8.28e-01
  3.8961e+01   7.90e-01
  4.0443e+01   7.54e-01
  4.1982e+01   7.19e-01
  4.3579e+01   6.86e-01
  4.5237e+01   6.54e-01
  4.6958e+01   6.24e-01
  4.8744e+01   5.95e-01
  5.0598e+01   5.67e-01
  5.2523e+01   5.40e-01
  5.4521e+01   5.15e-01
  5.6596e+01   4.91e-01
  5.8749e+01   4.68e-01
  6.0984e+01   4.45e-01
  6.3304e+01   4.24e-01
  6.5712e+01   4.04e-01
  6.8212e+01   3.85e-01
  7.0807e+01   3.66e-01
  7.3500e+01   3.48e-01
  7.6297e+01   3.31e-01
  7.9199e+01   3.15e-01
  8.2212e+01   3.00e-01
  8.5340e+01   2.85e-01
  8.8586e+01   2.71e-01
  9.1956e+01   2.58e-01
  9.5455e+01   2.45e-01
  9.9086e+01   2.33e-01
  1.0286e+02   2.21e-01
  1.0677e+02   2.10e-01
  1.1083e+02   2.00e-01
  1.1505e+02   1.89e-01
  1.1942e+02   1.80e-01
  1.2397e+02   1.71e-01
  1.2868e+02   1.62e-01
  1.3358e+02   1.54e-01
  1.3866e+02   1.46e-01
  1.4394e+02   1.38e-01
  1.4941e+02   1.31e-01
  1.5509e+02   1.24e-01
  1.6100e+02   1.18e-01
  1.6712e+02   1.11e-01
  1.7348e+02   1.05e-01
  1.8008e+02   9.97e-02
  1.8693e+02   9.43e-02
  1.9404e+02   8.92e-02
  2.0142e+02   8.43e-02
  2.0908e+02   7.96e-02
  2.1704e+02   7.52e-02
  2.2529e+02   7.10e-02
  2.3387e+02   6.70e-02
  2.4276e+02   6.32e-02
  2.5200e+02   5.95e-02
  2.6158e+02   5.61e-02
  2.7154e+02   5.28e-02
  2.8187e+02   4.97e-02
  2.9259e+02   4.67e-02
  3.0372e+02   4.39e-02
  3.1527e+02   4.12e-02
  3.2727e+02   3.86e-02
  3.3972e+02   3.62e-02
  3.5264e+02   3.39e-02
  3.6606e+02   3.18e-02
  3.7998e+02   2.97e-02
  3.9444e+02   2.78e-02
  4.0945e+02   2.59e-02
  4.2502e+02   2.42e-02
  4.4119e+02   2.25e-02
  4.5798e+02   2.10e-02
  4.7540e+02   1.95e-02
  4.9348e+02   1.81e-02
  5.1226e+02   1.68e-02
  5.3175e+02   1.56e-02
  5.5198e+02   1.45e-02
  5.7297e+02   1.34e-02
  5.9477e+02   1.24e-02
  6.1740e+02   1.15e-02
  6.4089e+02   1.06e-02
  6.6527e+02   9.76e-03
  6.9058e+02   9.00e-03
  7.1685e+02   8.30e-03
  7.4412e+02   7.64e-03
  7.7243e+02   7.04e-03
  8.0181e+02   6.49e-03
  8.3232e+02   5.97e-03
  8.6398e+02   5.50e-03
  8.9685e+02   5.06e-03
  9.3097e+02   4.65e-03
  9.6638e+02   4.28e-03
  1.0031e+03   3.94e-03
  1.0413e+03   3.63e-03
  1.0809e+03   3.33e-03
  1.1220e+03   3.07e-03
  1.1647e+03   2.82e-03
  1.2090e+03   2.59e-03
  1.2550e+03   2.38e-03
  1.3028e+03   2.19e-03
  1.3523e+03   2.01e-03
  1.4038e+03   1.84e-03
  1.4572e+03   1.69e-03
  1.5126e+03   1.55e-03
  1.5702e+03   1.43e-03
  1.6299e+03   1.31e-03
  1.6919e+03   1.20e-03
  1.7563e+03   1.10e-03
  1.8231e+03   1.01e-03
  1.8925e+03   9.20e-04
  1.9645e+03   8.43e-04
  2.0392e+03   7.71e-04
  2.1168e+03   7.04e-04
  2.1973e+03   6.43e-04
  2.2809e+03   5.87e-04
  2.3677e+03   5.34e-04
  2.4577e+03   4.87e-04
  2.5512e+03   4.43e-04
  2.6483e+03   4.02e-04
  2.7490e+03   3.65e-04
  2.8536e+03   3.30e-04
  2.9622e+03   2.98e-04
  3.0749e+03   2.70e-04
  3.1918e+03   2.43e-04
  3.3133e+03   2.19e-04
  3.4393e+03   1.97e-04
  3.5702e+03   1.77e-04
  3.7060e+03   1.58e-04
  3.8470e+03   1.41e-04
  3.9933e+03   1.26e-04
  4.1452e+03   1.12e-04
  4.3029e+03   9.90e-05
  4.4666e+03   8.77e-05
  4.6366e+03   7.73e-05
  4.8129e+03   6.79e-05
  4.9960e+03   5.97e-05
  5.1861e+03   5.20e-05
  5.3834e+03   4.52e-05
  5.5882e+03   3.93e-05
  5.8008e+03   3.40e-05
  6.0215e+03   2.91e-05
  6.2506e+03   2.51e-05
  6.4883e+03   2.14e-05
  6.7352e+03   1.81e-05
  6.9914e+03   1.54e-05
  7.2574e+03   1.30e-05
  7.5335e+03   1.08e-05
  7.8201e+03   9.04e-06
  8.1176e+03   7.49e-06
  8.4264e+03   6.11e-06
  8.7470e+03   5.03e-06
  9.0797e+03   4.08e-06
  9.4251e+03   3.26e-06
  9.7837e+03   2.62e-06
  1.0156e+04   2.07e-06
  1.0542e+04   1.61e-06
  1.0943e+04   1.25e-06
  1.1360e+04   9.62e-07
  1.1792e+04   7.22e-07
  1.2240e+04   5.41e-07
  1.2706e+04   3.99e-07
  1.3189e+04   2.87e-07
  1.3691e+04   2.04e-07
  1.4212e+04   1.43e-07
  1.4753e+04   9.69e-08
  1.5314e+04   6.46e-08
  1.5897e+04   4.22e-08
  1.6501e+04   2.64e-08
  1.7129e+04   1.60e-08
  1.7781e+04   9.47e-09
  1.8457e+04   5.29e-09
  1.9159e+04   2.82e-09
  1.9888e+04   1.44e-09
  2.0645e+04   6.85e-10
  2.1430e+04   3.01e-10
  2.2245e+04   1.24e-10
  2.3092e+04   4.61e-11
  2.3970e+04   1.51e-11
  2.4882e+04   4.48e-12
  2.5829e+04   1.12e-12
  2.6811e+04   2.32e-13
  2.7831e+04   3.96e-14
  2.8890e+04   5.18e-15
  2.9989e+04   4.94e-16
  3.1130e+04   3.33e-17
  3.2314e+04   1.43e-18
  3.3544e+04   3.53e-20
  3.4820e+04   4.56e-22
  3.6144e+04   2.59e-24
  3.7519e+04   5.31e-27
  3.8947e+04   3.12e-30
  4.0428e+04   3.76e-34
  4.1966e+04   6.16e-39
  4.3563e+04   7.96e-45
  4.5220e+04   6.29e-48
  4.6941e+04   5.51e-48
  4.8726e+04   4.87e-48
  5.0580e+04   4.31e-48
