#  E [GeV]   # per interaction  [GeV^{-1}]
  3.0000e+01   6.33e-01
  3.1123e+01   6.09e-01
  3.2288e+01   5.85e-01
  3.3497e+01   5.63e-01
  3.4751e+01   5.41e-01
  3.6051e+01   5.20e-01
  3.7401e+01   5.00e-01
  3.8801e+01   4.81e-01
  4.0253e+01   4.62e-01
  4.1760e+01   4.44e-01
  4.3324e+01   4.27e-01
  4.4945e+01   4.10e-01
  4.6628e+01   3.94e-01
  4.8373e+01   3.79e-01
  5.0184e+01   3.64e-01
  5.2063e+01   3.49e-01
  5.4011e+01   3.36e-01
  5.6033e+01   3.22e-01
  5.8131e+01   3.09e-01
  6.0307e+01   2.97e-01
  6.2564e+01   2.85e-01
  6.4906e+01   2.74e-01
  6.7336e+01   2.63e-01
  6.9857e+01   2.52e-01
  7.2472e+01   2.42e-01
  7.5184e+01   2.32e-01
  7.7999e+01   2.22e-01
  8.0919e+01   2.13e-01
  8.3948e+01   2.04e-01
  8.7090e+01   1.96e-01
  9.0350e+01   1.87e-01
  9.3732e+01   1.79e-01
  9.7241e+01   1.72e-01
  1.0088e+02   1.65e-01
  1.0466e+02   1.57e-01
  1.0858e+02   1.51e-01
  1.1264e+02   1.44e-01
  1.1686e+02   1.38e-01
  1.2123e+02   1.32e-01
  1.2577e+02   1.26e-01
  1.3048e+02   1.20e-01
  1.3536e+02   1.15e-01
  1.4043e+02   1.10e-01
  1.4568e+02   1.05e-01
  1.5114e+02   9.97e-02
  1.5680e+02   9.50e-02
  1.6266e+02   9.05e-02
  1.6875e+02   8.62e-02
  1.7507e+02   8.20e-02
  1.8162e+02   7.80e-02
  1.8842e+02   7.42e-02
  1.9548e+02   7.05e-02
  2.0279e+02   6.70e-02
  2.1039e+02   6.36e-02
  2.1826e+02   6.03e-02
  2.2643e+02   5.71e-02
  2.3491e+02   5.41e-02
  2.4370e+02   5.12e-02
  2.5282e+02   4.85e-02
  2.6229e+02   4.58e-02
  2.7211e+02   4.33e-02
  2.8229e+02   4.08e-02
  2.9286e+02   3.85e-02
  3.0382e+02   3.62e-02
  3.1519e+02   3.41e-02
  3.2699e+02   3.20e-02
  3.3923e+02   3.01e-02
  3.5193e+02   2.82e-02
  3.6511e+02   2.65e-02
  3.7877e+02   2.48e-02
  3.9295e+02   2.32e-02
  4.0766e+02   2.17e-02
  4.2292e+02   2.03e-02
  4.3875e+02   1.89e-02
  4.5518e+02   1.76e-02
  4.7222e+02   1.64e-02
  4.8989e+02   1.53e-02
  5.0823e+02   1.42e-02
  5.2726e+02   1.32e-02
  5.4699e+02   1.22e-02
  5.6747e+02   1.13e-02
  5.8871e+02   1.05e-02
  6.1075e+02   9.70e-03
  6.3361e+02   8.97e-03
  6.5733e+02   8.29e-03
  6.8194e+02   7.65e-03
  7.0746e+02   7.06e-03
  7.3395e+02   6.52e-03
  7.6142e+02   6.01e-03
  7.8992e+02   5.54e-03
  8.1949e+02   5.10e-03
  8.5017e+02   4.69e-03
  8.8199e+02   4.32e-03
  9.1501e+02   3.97e-03
  9.4926e+02   3.65e-03
  9.8479e+02   3.36e-03
  1.0217e+03   3.09e-03
  1.0599e+03   2.84e-03
  1.0996e+03   2.61e-03
  1.1407e+03   2.39e-03
  1.1834e+03   2.19e-03
  1.2277e+03   2.01e-03
  1.2737e+03   1.85e-03
  1.3214e+03   1.69e-03
  1.3708e+03   1.55e-03
  1.4222e+03   1.42e-03
  1.4754e+03   1.30e-03
  1.5306e+03   1.20e-03
  1.5879e+03   1.10e-03
  1.6474e+03   1.00e-03
  1.7090e+03   9.17e-04
  1.7730e+03   8.40e-04
  1.8394e+03   7.67e-04
  1.9082e+03   7.01e-04
  1.9797e+03   6.41e-04
  2.0538e+03   5.85e-04
  2.1306e+03   5.34e-04
  2.2104e+03   4.87e-04
  2.2931e+03   4.44e-04
  2.3790e+03   4.03e-04
  2.4680e+03   3.67e-04
  2.5604e+03   3.33e-04
  2.6563e+03   3.02e-04
  2.7557e+03   2.74e-04
  2.8589e+03   2.49e-04
  2.9659e+03   2.24e-04
  3.0769e+03   2.03e-04
  3.1921e+03   1.83e-04
  3.3116e+03   1.65e-04
  3.4355e+03   1.49e-04
  3.5641e+03   1.34e-04
  3.6976e+03   1.20e-04
  3.8360e+03   1.07e-04
  3.9796e+03   9.59e-05
  4.1285e+03   8.55e-05
  4.2831e+03   7.60e-05
  4.4434e+03   6.77e-05
  4.6097e+03   5.99e-05
  4.7823e+03   5.28e-05
  4.9613e+03   4.67e-05
  5.1470e+03   4.11e-05
  5.3397e+03   3.59e-05
  5.5396e+03   3.16e-05
  5.7470e+03   2.75e-05
  5.9621e+03   2.38e-05
  6.1853e+03   2.07e-05
  6.4168e+03   1.79e-05
  6.6570e+03   1.54e-05
  6.9062e+03   1.32e-05
  7.1647e+03   1.13e-05
  7.4329e+03   9.56e-06
  7.7112e+03   8.11e-06
  7.9998e+03   6.84e-06
  8.2993e+03   5.70e-06
  8.6100e+03   4.75e-06
  8.9323e+03   3.94e-06
  9.2666e+03   3.23e-06
  9.6135e+03   2.63e-06
  9.9734e+03   2.14e-06
  1.0347e+04   1.71e-06
  1.0734e+04   1.36e-06
  1.1136e+04   1.07e-06
  1.1553e+04   8.34e-07
  1.1985e+04   6.38e-07
  1.2434e+04   4.88e-07
  1.2899e+04   3.65e-07
  1.3382e+04   2.67e-07
  1.3883e+04   1.95e-07
  1.4403e+04   1.39e-07
  1.4942e+04   9.57e-08
  1.5501e+04   6.56e-08
  1.6081e+04   4.35e-08
  1.6683e+04   2.77e-08
  1.7308e+04   1.73e-08
  1.7956e+04   1.04e-08
  1.8628e+04   5.92e-09
  1.9325e+04   3.24e-09
  2.0049e+04   1.68e-09
  2.0799e+04   8.10e-10
  2.1578e+04   3.65e-10
  2.2386e+04   1.53e-10
  2.3224e+04   5.75e-11
  2.4093e+04   1.94e-11
  2.4995e+04   5.82e-12
  2.5930e+04   1.49e-12
  2.6901e+04   3.17e-13
  2.7908e+04   5.60e-14
  2.8953e+04   7.64e-15
  3.0037e+04   7.69e-16
  3.1161e+04   5.55e-17
  3.2327e+04   2.59e-18
  3.3537e+04   7.14e-20
  3.4793e+04   1.07e-21
  3.6095e+04   7.40e-24
  3.7446e+04   1.95e-26
  3.8848e+04   1.59e-29
  4.0302e+04   2.94e-33
  4.1811e+04   8.41e-38
  4.3376e+04   2.29e-43
  4.5000e+04   9.95e-48
