#  E [MeV]   Flux [# cm^{-2} s^{-1}  MeV^{-1}]
  3.0000e+04   1.16e-24
  3.0962e+04   1.12e-24
  3.1955e+04   1.08e-24
  3.2979e+04   1.04e-24
  3.4037e+04   1.00e-24
  3.5128e+04   9.67e-25
  3.6254e+04   9.33e-25
  3.7417e+04   8.99e-25
  3.8616e+04   8.67e-25
  3.9855e+04   8.35e-25
  4.1132e+04   8.05e-25
  4.2451e+04   7.76e-25
  4.3812e+04   7.47e-25
  4.5217e+04   7.20e-25
  4.6667e+04   6.93e-25
  4.8163e+04   6.67e-25
  4.9707e+04   6.42e-25
  5.1301e+04   6.18e-25
  5.2946e+04   5.95e-25
  5.4644e+04   5.72e-25
  5.6396e+04   5.50e-25
  5.8204e+04   5.29e-25
  6.0070e+04   5.08e-25
  6.1996e+04   4.88e-25
  6.3984e+04   4.69e-25
  6.6035e+04   4.51e-25
  6.8153e+04   4.33e-25
  7.0338e+04   4.16e-25
  7.2593e+04   3.99e-25
  7.4921e+04   3.83e-25
  7.7323e+04   3.67e-25
  7.9802e+04   3.52e-25
  8.2361e+04   3.38e-25
  8.5002e+04   3.24e-25
  8.7727e+04   3.10e-25
  9.0540e+04   2.97e-25
  9.3443e+04   2.84e-25
  9.6439e+04   2.72e-25
  9.9531e+04   2.60e-25
  1.0272e+05   2.49e-25
  1.0602e+05   2.38e-25
  1.0942e+05   2.28e-25
  1.1292e+05   2.18e-25
  1.1654e+05   2.08e-25
  1.2028e+05   1.98e-25
  1.2414e+05   1.89e-25
  1.2812e+05   1.81e-25
  1.3223e+05   1.72e-25
  1.3646e+05   1.64e-25
  1.4084e+05   1.56e-25
  1.4536e+05   1.49e-25
  1.5002e+05   1.42e-25
  1.5483e+05   1.35e-25
  1.5979e+05   1.28e-25
  1.6491e+05   1.22e-25
  1.7020e+05   1.16e-25
  1.7566e+05   1.10e-25
  1.8129e+05   1.05e-25
  1.8710e+05   9.92e-26
  1.9310e+05   9.40e-26
  1.9929e+05   8.91e-26
  2.0568e+05   8.44e-26
  2.1228e+05   7.98e-26
  2.1909e+05   7.55e-26
  2.2611e+05   7.14e-26
  2.3336e+05   6.74e-26
  2.4084e+05   6.36e-26
  2.4856e+05   6.00e-26
  2.5653e+05   5.66e-26
  2.6476e+05   5.33e-26
  2.7325e+05   5.02e-26
  2.8201e+05   4.72e-26
  2.9105e+05   4.43e-26
  3.0038e+05   4.16e-26
  3.1002e+05   3.91e-26
  3.1996e+05   3.66e-26
  3.3021e+05   3.43e-26
  3.4080e+05   3.21e-26
  3.5173e+05   3.01e-26
  3.6301e+05   2.81e-26
  3.7465e+05   2.62e-26
  3.8666e+05   2.44e-26
  3.9905e+05   2.28e-26
  4.1185e+05   2.12e-26
  4.2506e+05   1.97e-26
  4.3868e+05   1.83e-26
  4.5275e+05   1.70e-26
  4.6727e+05   1.58e-26
  4.8225e+05   1.46e-26
  4.9771e+05   1.35e-26
  5.1367e+05   1.25e-26
  5.3014e+05   1.16e-26
  5.4714e+05   1.07e-26
  5.6468e+05   9.88e-27
  5.8278e+05   9.11e-27
  6.0147e+05   8.40e-27
  6.2075e+05   7.74e-27
  6.4066e+05   7.13e-27
  6.6120e+05   6.55e-27
  6.8240e+05   6.03e-27
  7.0428e+05   5.54e-27
  7.2686e+05   5.09e-27
  7.5017e+05   4.67e-27
  7.7422e+05   4.29e-27
  7.9904e+05   3.93e-27
  8.2466e+05   3.60e-27
  8.5110e+05   3.30e-27
  8.7839e+05   3.02e-27
  9.0656e+05   2.77e-27
  9.3562e+05   2.53e-27
  9.6562e+05   2.32e-27
  9.9658e+05   2.13e-27
  1.0285e+06   1.95e-27
  1.0615e+06   1.78e-27
  1.0956e+06   1.63e-27
  1.1307e+06   1.49e-27
  1.1669e+06   1.36e-27
  1.2043e+06   1.25e-27
  1.2430e+06   1.14e-27
  1.2828e+06   1.04e-27
  1.3239e+06   9.50e-28
  1.3664e+06   8.70e-28
  1.4102e+06   7.95e-28
  1.4554e+06   7.26e-28
  1.5021e+06   6.64e-28
  1.5502e+06   6.07e-28
  1.6000e+06   5.54e-28
  1.6513e+06   5.05e-28
  1.7042e+06   4.62e-28
  1.7588e+06   4.22e-28
  1.8152e+06   3.84e-28
  1.8734e+06   3.50e-28
  1.9335e+06   3.20e-28
  1.9955e+06   2.92e-28
  2.0595e+06   2.65e-28
  2.1255e+06   2.42e-28
  2.1937e+06   2.21e-28
  2.2640e+06   2.01e-28
  2.3366e+06   1.82e-28
  2.4115e+06   1.66e-28
  2.4888e+06   1.51e-28
  2.5686e+06   1.37e-28
  2.6510e+06   1.24e-28
  2.7360e+06   1.13e-28
  2.8237e+06   1.02e-28
  2.9142e+06   9.21e-29
  3.0077e+06   8.34e-29
  3.1041e+06   7.54e-29
  3.2036e+06   6.80e-29
  3.3064e+06   6.11e-29
  3.4124e+06   5.52e-29
  3.5218e+06   4.97e-29
  3.6347e+06   4.45e-29
  3.7512e+06   4.00e-29
  3.8715e+06   3.60e-29
  3.9957e+06   3.22e-29
  4.1238e+06   2.87e-29
  4.2560e+06   2.57e-29
  4.3924e+06   2.31e-29
  4.5333e+06   2.05e-29
  4.6786e+06   1.82e-29
  4.8286e+06   1.63e-29
  4.9835e+06   1.46e-29
  5.1433e+06   1.29e-29
  5.3082e+06   1.15e-29
  5.4784e+06   1.02e-29
  5.6540e+06   9.05e-30
  5.8353e+06   7.98e-30
  6.0224e+06   7.11e-30
  6.2155e+06   6.32e-30
  6.4148e+06   5.59e-30
  6.6205e+06   4.94e-30
  6.8327e+06   4.40e-30
  7.0518e+06   3.91e-30
  7.2779e+06   3.45e-30
  7.5113e+06   3.06e-30
  7.7521e+06   2.72e-30
  8.0007e+06   2.41e-30
  8.2572e+06   2.12e-30
  8.5219e+06   1.88e-30
  8.7952e+06   1.67e-30
  9.0772e+06   1.47e-30
  9.3682e+06   1.29e-30
  9.6686e+06   1.15e-30
  9.9786e+06   1.02e-30
  1.0299e+07   8.89e-31
  1.0629e+07   7.88e-31
  1.0970e+07   6.99e-31
  1.1321e+07   6.12e-31
  1.1684e+07   5.28e-31
  1.2059e+07   4.83e-31
  1.2446e+07   4.31e-31
  1.2845e+07   3.74e-31
  1.3256e+07   3.38e-31
  1.3681e+07   3.25e-31
  1.4120e+07   2.94e-31
  1.4573e+07   2.52e-31
  1.5040e+07   1.98e-31
  1.5522e+07   1.48e-31
  1.6020e+07   1.07e-31
