#  E [MeV]   Flux [# cm^{-2} s^{-1}  MeV^{-1}]
  3.0000e+04   2.56e-25
  3.0782e+04   2.47e-25
  3.1585e+04   2.38e-25
  3.2409e+04   2.30e-25
  3.3255e+04   2.22e-25
  3.4122e+04   2.14e-25
  3.5012e+04   2.07e-25
  3.5925e+04   1.99e-25
  3.6862e+04   1.92e-25
  3.7824e+04   1.86e-25
  3.8810e+04   1.79e-25
  3.9822e+04   1.73e-25
  4.0861e+04   1.66e-25
  4.1927e+04   1.61e-25
  4.3021e+04   1.55e-25
  4.4143e+04   1.49e-25
  4.5294e+04   1.44e-25
  4.6475e+04   1.39e-25
  4.7688e+04   1.34e-25
  4.8931e+04   1.29e-25
  5.0208e+04   1.24e-25
  5.1517e+04   1.20e-25
  5.2861e+04   1.15e-25
  5.4240e+04   1.11e-25
  5.5654e+04   1.07e-25
  5.7106e+04   1.03e-25
  5.8596e+04   9.92e-26
  6.0124e+04   9.56e-26
  6.1692e+04   9.20e-26
  6.3301e+04   8.86e-26
  6.4952e+04   8.53e-26
  6.6647e+04   8.21e-26
  6.8385e+04   7.91e-26
  7.0169e+04   7.61e-26
  7.1999e+04   7.33e-26
  7.3877e+04   7.05e-26
  7.5804e+04   6.79e-26
  7.7781e+04   6.53e-26
  7.9810e+04   6.29e-26
  8.1891e+04   6.05e-26
  8.4027e+04   5.82e-26
  8.6219e+04   5.60e-26
  8.8468e+04   5.39e-26
  9.0775e+04   5.19e-26
  9.3143e+04   4.99e-26
  9.5572e+04   4.80e-26
  9.8065e+04   4.62e-26
  1.0062e+05   4.45e-26
  1.0325e+05   4.28e-26
  1.0594e+05   4.12e-26
  1.0870e+05   3.96e-26
  1.1154e+05   3.81e-26
  1.1445e+05   3.67e-26
  1.1743e+05   3.53e-26
  1.2050e+05   3.39e-26
  1.2364e+05   3.26e-26
  1.2686e+05   3.14e-26
  1.3017e+05   3.02e-26
  1.3357e+05   2.90e-26
  1.3705e+05   2.79e-26
  1.4063e+05   2.69e-26
  1.4429e+05   2.58e-26
  1.4806e+05   2.49e-26
  1.5192e+05   2.39e-26
  1.5588e+05   2.30e-26
  1.5995e+05   2.21e-26
  1.6412e+05   2.13e-26
  1.6840e+05   2.05e-26
  1.7279e+05   1.97e-26
  1.7730e+05   1.89e-26
  1.8193e+05   1.82e-26
  1.8667e+05   1.75e-26
  1.9154e+05   1.68e-26
  1.9654e+05   1.62e-26
  2.0166e+05   1.56e-26
  2.0692e+05   1.50e-26
  2.1232e+05   1.44e-26
  2.1786e+05   1.38e-26
  2.2354e+05   1.33e-26
  2.2937e+05   1.28e-26
  2.3535e+05   1.23e-26
  2.4149e+05   1.18e-26
  2.4779e+05   1.14e-26
  2.5425e+05   1.09e-26
  2.6088e+05   1.05e-26
  2.6769e+05   1.01e-26
  2.7467e+05   9.69e-27
  2.8184e+05   9.32e-27
  2.8919e+05   8.96e-27
  2.9673e+05   8.60e-27
  3.0447e+05   8.27e-27
  3.1241e+05   7.94e-27
  3.2056e+05   7.63e-27
  3.2892e+05   7.33e-27
  3.3750e+05   7.04e-27
  3.4630e+05   6.76e-27
  3.5533e+05   6.49e-27
  3.6460e+05   6.23e-27
  3.7411e+05   5.98e-27
  3.8387e+05   5.74e-27
  3.9388e+05   5.51e-27
  4.0416e+05   5.29e-27
  4.1470e+05   5.08e-27
  4.2551e+05   4.88e-27
  4.3661e+05   4.68e-27
  4.4800e+05   4.49e-27
  4.5969e+05   4.31e-27
  4.7168e+05   4.13e-27
  4.8398e+05   3.96e-27
  4.9660e+05   3.80e-27
  5.0956e+05   3.64e-27
  5.2285e+05   3.49e-27
  5.3648e+05   3.35e-27
  5.5048e+05   3.21e-27
  5.6483e+05   3.08e-27
  5.7957e+05   2.95e-27
  5.9468e+05   2.83e-27
  6.1020e+05   2.71e-27
  6.2611e+05   2.60e-27
  6.4244e+05   2.49e-27
  6.5920e+05   2.39e-27
  6.7639e+05   2.29e-27
  6.9403e+05   2.19e-27
  7.1214e+05   2.10e-27
  7.3071e+05   2.01e-27
  7.4977e+05   1.93e-27
  7.6933e+05   1.85e-27
  7.8939e+05   1.77e-27
  8.0998e+05   1.70e-27
  8.3111e+05   1.63e-27
  8.5279e+05   1.56e-27
  8.7503e+05   1.49e-27
  8.9785e+05   1.43e-27
  9.2127e+05   1.37e-27
  9.4530e+05   1.32e-27
  9.6996e+05   1.26e-27
  9.9526e+05   1.21e-27
  1.0212e+06   1.16e-27
  1.0479e+06   1.11e-27
  1.0752e+06   1.07e-27
  1.1032e+06   1.02e-27
  1.1320e+06   9.82e-28
  1.1615e+06   9.42e-28
  1.1918e+06   9.04e-28
  1.2229e+06   8.67e-28
  1.2548e+06   8.32e-28
  1.2875e+06   7.98e-28
  1.3211e+06   7.66e-28
  1.3556e+06   7.35e-28
  1.3909e+06   7.06e-28
  1.4272e+06   6.77e-28
  1.4644e+06   6.50e-28
  1.5026e+06   6.24e-28
  1.5418e+06   5.99e-28
  1.5820e+06   5.75e-28
  1.6233e+06   5.52e-28
  1.6657e+06   5.30e-28
  1.7091e+06   5.09e-28
  1.7537e+06   4.89e-28
  1.7994e+06   4.69e-28
  1.8464e+06   4.50e-28
  1.8945e+06   4.33e-28
  1.9439e+06   4.15e-28
  1.9946e+06   3.99e-28
  2.0467e+06   3.83e-28
  2.1000e+06   3.67e-28
  2.1548e+06   3.52e-28
  2.2110e+06   3.38e-28
  2.2687e+06   3.25e-28
  2.3279e+06   3.11e-28
  2.3886e+06   2.99e-28
  2.4509e+06   2.86e-28
  2.5148e+06   2.75e-28
  2.5804e+06   2.63e-28
  2.6477e+06   2.52e-28
  2.7168e+06   2.42e-28
  2.7876e+06   2.31e-28
  2.8603e+06   2.22e-28
  2.9349e+06   2.12e-28
  3.0115e+06   2.03e-28
  3.0900e+06   1.94e-28
  3.1706e+06   1.86e-28
  3.2533e+06   1.78e-28
  3.3382e+06   1.70e-28
  3.4253e+06   1.62e-28
  3.5146e+06   1.55e-28
  3.6063e+06   1.48e-28
  3.7003e+06   1.41e-28
  3.7969e+06   1.35e-28
  3.8959e+06   1.28e-28
  3.9975e+06   1.22e-28
  4.1018e+06   1.16e-28
  4.2088e+06   1.11e-28
  4.3185e+06   1.05e-28
  4.4312e+06   9.99e-29
  4.5467e+06   9.49e-29
  4.6653e+06   9.00e-29
  4.7870e+06   8.53e-29
  4.9119e+06   8.13e-29
  5.0400e+06   7.74e-29
