#  E [GeV]   # per interaction  [GeV^{-1}]
  3.0000e+01   6.25e-01
  3.1141e+01   6.00e-01
  3.2326e+01   5.77e-01
  3.3556e+01   5.54e-01
  3.4832e+01   5.32e-01
  3.6157e+01   5.11e-01
  3.7533e+01   4.91e-01
  3.8961e+01   4.72e-01
  4.0443e+01   4.53e-01
  4.1982e+01   4.35e-01
  4.3579e+01   4.18e-01
  4.5237e+01   4.01e-01
  4.6958e+01   3.85e-01
  4.8744e+01   3.70e-01
  5.0598e+01   3.55e-01
  5.2523e+01   3.40e-01
  5.4521e+01   3.27e-01
  5.6596e+01   3.13e-01
  5.8749e+01   3.01e-01
  6.0984e+01   2.88e-01
  6.3304e+01   2.77e-01
  6.5712e+01   2.65e-01
  6.8212e+01   2.54e-01
  7.0807e+01   2.44e-01
  7.3500e+01   2.33e-01
  7.6297e+01   2.24e-01
  7.9199e+01   2.14e-01
  8.2212e+01   2.05e-01
  8.5340e+01   1.96e-01
  8.8586e+01   1.88e-01
  9.1956e+01   1.80e-01
  9.5455e+01   1.72e-01
  9.9086e+01   1.65e-01
  1.0286e+02   1.57e-01
  1.0677e+02   1.50e-01
  1.1083e+02   1.44e-01
  1.1505e+02   1.37e-01
  1.1942e+02   1.31e-01
  1.2397e+02   1.25e-01
  1.2868e+02   1.19e-01
  1.3358e+02   1.14e-01
  1.3866e+02   1.08e-01
  1.4394e+02   1.03e-01
  1.4941e+02   9.84e-02
  1.5509e+02   9.36e-02
  1.6100e+02   8.90e-02
  1.6712e+02   8.46e-02
  1.7348e+02   8.04e-02
  1.8008e+02   7.63e-02
  1.8693e+02   7.24e-02
  1.9404e+02   6.86e-02
  2.0142e+02   6.50e-02
  2.0908e+02   6.15e-02
  2.1704e+02   5.81e-02
  2.2529e+02   5.49e-02
  2.3387e+02   5.18e-02
  2.4276e+02   4.89e-02
  2.5200e+02   4.61e-02
  2.6158e+02   4.34e-02
  2.7154e+02   4.08e-02
  2.8187e+02   3.83e-02
  2.9259e+02   3.59e-02
  3.0372e+02   3.36e-02
  3.1527e+02   3.15e-02
  3.2727e+02   2.94e-02
  3.3972e+02   2.74e-02
  3.5264e+02   2.56e-02
  3.6606e+02   2.38e-02
  3.7998e+02   2.21e-02
  3.9444e+02   2.06e-02
  4.0945e+02   1.91e-02
  4.2502e+02   1.77e-02
  4.4119e+02   1.63e-02
  4.5798e+02   1.51e-02
  4.7540e+02   1.39e-02
  4.9348e+02   1.28e-02
  5.1226e+02   1.18e-02
  5.3175e+02   1.09e-02
  5.5198e+02   9.97e-03
  5.7297e+02   9.15e-03
  5.9477e+02   8.38e-03
  6.1740e+02   7.67e-03
  6.4089e+02   7.01e-03
  6.6527e+02   6.41e-03
  6.9058e+02   5.85e-03
  7.1685e+02   5.34e-03
  7.4412e+02   4.87e-03
  7.7243e+02   4.44e-03
  8.0181e+02   4.04e-03
  8.3232e+02   3.68e-03
  8.6398e+02   3.35e-03
  8.9685e+02   3.05e-03
  9.3097e+02   2.78e-03
  9.6638e+02   2.53e-03
  1.0031e+03   2.30e-03
  1.0413e+03   2.09e-03
  1.0809e+03   1.91e-03
  1.1220e+03   1.73e-03
  1.1647e+03   1.58e-03
  1.2090e+03   1.44e-03
  1.2550e+03   1.31e-03
  1.3028e+03   1.19e-03
  1.3523e+03   1.08e-03
  1.4038e+03   9.84e-04
  1.4572e+03   8.95e-04
  1.5126e+03   8.15e-04
  1.5702e+03   7.42e-04
  1.6299e+03   6.74e-04
  1.6919e+03   6.14e-04
  1.7563e+03   5.59e-04
  1.8231e+03   5.08e-04
  1.8925e+03   4.62e-04
  1.9645e+03   4.20e-04
  2.0392e+03   3.81e-04
  2.1168e+03   3.46e-04
  2.1973e+03   3.15e-04
  2.2809e+03   2.85e-04
  2.3677e+03   2.58e-04
  2.4577e+03   2.34e-04
  2.5512e+03   2.11e-04
  2.6483e+03   1.91e-04
  2.7490e+03   1.72e-04
  2.8536e+03   1.55e-04
  2.9622e+03   1.40e-04
  3.0749e+03   1.26e-04
  3.1918e+03   1.12e-04
  3.3133e+03   1.01e-04
  3.4393e+03   9.01e-05
  3.5702e+03   8.02e-05
  3.7060e+03   7.13e-05
  3.8470e+03   6.34e-05
  3.9933e+03   5.61e-05
  4.1452e+03   4.95e-05
  4.3029e+03   4.37e-05
  4.4666e+03   3.84e-05
  4.6366e+03   3.35e-05
  4.8129e+03   2.93e-05
  4.9960e+03   2.54e-05
  5.1861e+03   2.19e-05
  5.3834e+03   1.90e-05
  5.5882e+03   1.63e-05
  5.8008e+03   1.38e-05
  6.0215e+03   1.18e-05
  6.2506e+03   9.99e-06
  6.4883e+03   8.36e-06
  6.7352e+03   7.02e-06
  6.9914e+03   5.83e-06
  7.2574e+03   4.79e-06
  7.5335e+03   3.93e-06
  7.8201e+03   3.20e-06
  8.1176e+03   2.56e-06
  8.4264e+03   2.05e-06
  8.7470e+03   1.62e-06
  9.0797e+03   1.26e-06
  9.4251e+03   9.73e-07
  9.7837e+03   7.42e-07
  1.0156e+04   5.55e-07
  1.0542e+04   4.10e-07
  1.0943e+04   2.99e-07
  1.1360e+04   2.13e-07
  1.1792e+04   1.49e-07
  1.2240e+04   1.02e-07
  1.2706e+04   6.77e-08
  1.3189e+04   4.38e-08
  1.3691e+04   2.77e-08
  1.4212e+04   1.68e-08
  1.4753e+04   9.80e-09
  1.5314e+04   5.54e-09
  1.5897e+04   2.96e-09
  1.6501e+04   1.50e-09
  1.7129e+04   7.23e-10
  1.7781e+04   3.24e-10
  1.8457e+04   1.34e-10
  1.9159e+04   5.13e-11
  1.9888e+04   1.77e-11
  2.0645e+04   5.43e-12
  2.1430e+04   1.49e-12
  2.2245e+04   3.50e-13
  2.3092e+04   6.84e-14
  2.3970e+04   1.13e-14
  2.4882e+04   1.47e-15
  2.5829e+04   1.45e-16
  2.6811e+04   1.08e-17
  2.7831e+04   5.55e-19
  2.8890e+04   1.84e-20
  2.9989e+04   3.76e-22
  3.1130e+04   4.20e-24
  3.2314e+04   2.26e-26
  3.3544e+04   5.23e-29
  3.4820e+04   4.27e-32
  3.6144e+04   9.76e-36
  3.7519e+04   4.84e-40
  3.8947e+04   3.63e-45
  4.0428e+04   1.28e-47
  4.1966e+04   1.18e-47
  4.3563e+04   1.09e-47
  4.5220e+04   1.00e-47
  4.6941e+04   9.31e-48
  4.8726e+04   8.72e-48
  5.0580e+04   8.15e-48
