#  E [MeV]   Flux [# cm^{-2} s^{-1}  MeV^{-1}]
  3.0000e+04   6.79e-23
  3.1051e+04   6.51e-23
  3.2139e+04   6.24e-23
  3.3266e+04   5.97e-23
  3.4432e+04   5.72e-23
  3.5638e+04   5.48e-23
  3.6887e+04   5.25e-23
  3.8180e+04   5.03e-23
  3.9518e+04   4.81e-23
  4.0903e+04   4.61e-23
  4.2336e+04   4.41e-23
  4.3820e+04   4.22e-23
  4.5355e+04   4.04e-23
  4.6945e+04   3.86e-23
  4.8590e+04   3.69e-23
  5.0293e+04   3.53e-23
  5.2055e+04   3.38e-23
  5.3879e+04   3.23e-23
  5.5767e+04   3.09e-23
  5.7722e+04   2.95e-23
  5.9745e+04   2.82e-23
  6.1838e+04   2.69e-23
  6.4005e+04   2.57e-23
  6.6248e+04   2.46e-23
  6.8570e+04   2.35e-23
  7.0973e+04   2.24e-23
  7.3460e+04   2.14e-23
  7.6034e+04   2.04e-23
  7.8699e+04   1.95e-23
  8.1457e+04   1.86e-23
  8.4311e+04   1.77e-23
  8.7266e+04   1.69e-23
  9.0324e+04   1.61e-23
  9.3490e+04   1.54e-23
  9.6766e+04   1.46e-23
  1.0016e+05   1.40e-23
  1.0367e+05   1.33e-23
  1.0730e+05   1.27e-23
  1.1106e+05   1.21e-23
  1.1495e+05   1.15e-23
  1.1898e+05   1.09e-23
  1.2315e+05   1.04e-23
  1.2747e+05   9.90e-24
  1.3193e+05   9.42e-24
  1.3656e+05   8.96e-24
  1.4134e+05   8.52e-24
  1.4629e+05   8.09e-24
  1.5142e+05   7.69e-24
  1.5673e+05   7.31e-24
  1.6222e+05   6.94e-24
  1.6790e+05   6.59e-24
  1.7379e+05   6.26e-24
  1.7988e+05   5.94e-24
  1.8618e+05   5.63e-24
  1.9271e+05   5.34e-24
  1.9946e+05   5.06e-24
  2.0645e+05   4.79e-24
  2.1369e+05   4.54e-24
  2.2117e+05   4.30e-24
  2.2892e+05   4.07e-24
  2.3695e+05   3.85e-24
  2.4525e+05   3.64e-24
  2.5385e+05   3.44e-24
  2.6274e+05   3.25e-24
  2.7195e+05   3.07e-24
  2.8148e+05   2.90e-24
  2.9134e+05   2.74e-24
  3.0155e+05   2.58e-24
  3.1212e+05   2.43e-24
  3.2306e+05   2.29e-24
  3.3438e+05   2.16e-24
  3.4610e+05   2.04e-24
  3.5823e+05   1.92e-24
  3.7078e+05   1.81e-24
  3.8377e+05   1.70e-24
  3.9722e+05   1.60e-24
  4.1114e+05   1.50e-24
  4.2555e+05   1.41e-24
  4.4046e+05   1.33e-24
  4.5590e+05   1.25e-24
  4.7188e+05   1.17e-24
  4.8841e+05   1.10e-24
  5.0553e+05   1.03e-24
  5.2324e+05   9.63e-25
  5.4158e+05   9.02e-25
  5.6056e+05   8.44e-25
  5.8020e+05   7.91e-25
  6.0054e+05   7.39e-25
  6.2158e+05   6.91e-25
  6.4337e+05   6.46e-25
  6.6591e+05   6.03e-25
  6.8925e+05   5.63e-25
  7.1340e+05   5.25e-25
  7.3840e+05   4.89e-25
  7.6428e+05   4.55e-25
  7.9106e+05   4.24e-25
  8.1878e+05   3.94e-25
  8.4748e+05   3.67e-25
  8.7718e+05   3.40e-25
  9.0792e+05   3.16e-25
  9.3973e+05   2.93e-25
  9.7267e+05   2.72e-25
  1.0068e+06   2.52e-25
  1.0420e+06   2.33e-25
  1.0785e+06   2.16e-25
  1.1163e+06   1.99e-25
  1.1555e+06   1.84e-25
  1.1960e+06   1.70e-25
  1.2379e+06   1.57e-25
  1.2813e+06   1.45e-25
  1.3262e+06   1.34e-25
  1.3726e+06   1.23e-25
  1.4207e+06   1.13e-25
  1.4705e+06   1.04e-25
  1.5220e+06   9.53e-26
  1.5754e+06   8.73e-26
  1.6306e+06   8.01e-26
  1.6877e+06   7.34e-26
  1.7469e+06   6.70e-26
  1.8081e+06   6.13e-26
  1.8715e+06   5.60e-26
  1.9370e+06   5.11e-26
  2.0049e+06   4.65e-26
  2.0752e+06   4.24e-26
  2.1479e+06   3.86e-26
  2.2232e+06   3.50e-26
  2.3011e+06   3.19e-26
  2.3817e+06   2.89e-26
  2.4652e+06   2.62e-26
  2.5516e+06   2.37e-26
  2.6410e+06   2.15e-26
  2.7336e+06   1.94e-26
  2.8294e+06   1.75e-26
  2.9285e+06   1.58e-26
  3.0311e+06   1.42e-26
  3.1374e+06   1.27e-26
  3.2473e+06   1.15e-26
  3.3611e+06   1.03e-26
  3.4789e+06   9.21e-27
  3.6008e+06   8.25e-27
  3.7270e+06   7.40e-27
  3.8576e+06   6.60e-27
  3.9928e+06   5.87e-27
  4.1327e+06   5.26e-27
  4.2775e+06   4.69e-27
  4.4274e+06   4.14e-27
  4.5826e+06   3.70e-27
  4.7432e+06   3.29e-27
  4.9094e+06   2.91e-27
  5.0815e+06   2.58e-27
  5.2595e+06   2.29e-27
  5.4438e+06   2.02e-27
  5.6346e+06   1.78e-27
  5.8321e+06   1.58e-27
  6.0365e+06   1.39e-27
  6.2480e+06   1.22e-27
  6.4670e+06   1.08e-27
  6.6936e+06   9.50e-28
  6.9282e+06   8.31e-28
  7.1709e+06   7.30e-28
  7.4222e+06   6.45e-28
  7.6823e+06   5.66e-28
  7.9516e+06   4.93e-28
  8.2302e+06   4.37e-28
  8.5186e+06   3.84e-28
  8.8172e+06   3.34e-28
  9.1262e+06   2.96e-28
  9.4460e+06   2.61e-28
  9.7770e+06   2.28e-28
  1.0120e+07   2.00e-28
  1.0474e+07   1.77e-28
  1.0841e+07   1.56e-28
  1.1221e+07   1.36e-28
  1.1614e+07   1.22e-28
  1.2022e+07   1.08e-28
  1.2443e+07   9.49e-29
  1.2879e+07   8.47e-29
  1.3330e+07   7.56e-29
  1.3797e+07   6.71e-29
  1.4281e+07   5.97e-29
  1.4781e+07   5.35e-29
  1.5299e+07   4.78e-29
  1.5835e+07   4.24e-29
  1.6390e+07   3.81e-29
  1.6965e+07   3.40e-29
  1.7559e+07   3.03e-29
  1.8175e+07   2.71e-29
  1.8812e+07   2.42e-29
  1.9471e+07   2.15e-29
  2.0153e+07   1.90e-29
  2.0859e+07   1.68e-29
  2.1590e+07   1.48e-29
  2.2347e+07   1.29e-29
  2.3130e+07   1.11e-29
  2.3941e+07   9.51e-30
  2.4780e+07   8.03e-30
  2.5648e+07   6.69e-30
  2.6547e+07   5.47e-30
  2.7477e+07   4.40e-30
  2.8440e+07   3.50e-30
