#  E [GeV]   # per interaction  [GeV^{-1}]
  3.0000e+01   8.65e-01
  3.1033e+01   8.29e-01
  3.2102e+01   7.94e-01
  3.3207e+01   7.61e-01
  3.4350e+01   7.28e-01
  3.5533e+01   6.98e-01
  3.6757e+01   6.68e-01
  3.8022e+01   6.40e-01
  3.9332e+01   6.12e-01
  4.0686e+01   5.86e-01
  4.2087e+01   5.61e-01
  4.3536e+01   5.36e-01
  4.5035e+01   5.13e-01
  4.6586e+01   4.91e-01
  4.8190e+01   4.70e-01
  4.9850e+01   4.49e-01
  5.1566e+01   4.29e-01
  5.3342e+01   4.11e-01
  5.5178e+01   3.93e-01
  5.7078e+01   3.75e-01
  5.9044e+01   3.59e-01
  6.1077e+01   3.43e-01
  6.3180e+01   3.27e-01
  6.5356e+01   3.13e-01
  6.7606e+01   2.99e-01
  6.9934e+01   2.86e-01
  7.2342e+01   2.73e-01
  7.4833e+01   2.60e-01
  7.7410e+01   2.49e-01
  8.0075e+01   2.37e-01
  8.2833e+01   2.27e-01
  8.5685e+01   2.16e-01
  8.8635e+01   2.06e-01
  9.1687e+01   1.97e-01
  9.4844e+01   1.88e-01
  9.8110e+01   1.79e-01
  1.0149e+02   1.71e-01
  1.0498e+02   1.63e-01
  1.0860e+02   1.55e-01
  1.1234e+02   1.48e-01
  1.1621e+02   1.41e-01
  1.2021e+02   1.34e-01
  1.2435e+02   1.28e-01
  1.2863e+02   1.22e-01
  1.3306e+02   1.16e-01
  1.3764e+02   1.11e-01
  1.4238e+02   1.05e-01
  1.4728e+02   1.00e-01
  1.5235e+02   9.53e-02
  1.5760e+02   9.06e-02
  1.6302e+02   8.61e-02
  1.6864e+02   8.18e-02
  1.7445e+02   7.77e-02
  1.8045e+02   7.38e-02
  1.8667e+02   7.01e-02
  1.9309e+02   6.65e-02
  1.9974e+02   6.31e-02
  2.0662e+02   5.98e-02
  2.1373e+02   5.67e-02
  2.2109e+02   5.36e-02
  2.2871e+02   5.08e-02
  2.3658e+02   4.80e-02
  2.4473e+02   4.54e-02
  2.5316e+02   4.29e-02
  2.6187e+02   4.05e-02
  2.7089e+02   3.82e-02
  2.8022e+02   3.60e-02
  2.8987e+02   3.39e-02
  2.9985e+02   3.19e-02
  3.1017e+02   3.00e-02
  3.2085e+02   2.82e-02
  3.3190e+02   2.65e-02
  3.4333e+02   2.48e-02
  3.5515e+02   2.33e-02
  3.6738e+02   2.18e-02
  3.8003e+02   2.04e-02
  3.9312e+02   1.91e-02
  4.0665e+02   1.79e-02
  4.2066e+02   1.67e-02
  4.3514e+02   1.56e-02
  4.5013e+02   1.46e-02
  4.6562e+02   1.36e-02
  4.8166e+02   1.27e-02
  4.9824e+02   1.18e-02
  5.1540e+02   1.10e-02
  5.3315e+02   1.02e-02
  5.5150e+02   9.54e-03
  5.7050e+02   8.87e-03
  5.9014e+02   8.23e-03
  6.1046e+02   7.64e-03
  6.3148e+02   7.09e-03
  6.5322e+02   6.57e-03
  6.7572e+02   6.08e-03
  6.9898e+02   5.63e-03
  7.2305e+02   5.20e-03
  7.4795e+02   4.81e-03
  7.7371e+02   4.44e-03
  8.0035e+02   4.10e-03
  8.2791e+02   3.78e-03
  8.5641e+02   3.49e-03
  8.8590e+02   3.21e-03
  9.1641e+02   2.96e-03
  9.4796e+02   2.72e-03
  9.8061e+02   2.51e-03
  1.0144e+03   2.31e-03
  1.0493e+03   2.12e-03
  1.0854e+03   1.95e-03
  1.1228e+03   1.79e-03
  1.1615e+03   1.64e-03
  1.2015e+03   1.50e-03
  1.2428e+03   1.38e-03
  1.2856e+03   1.26e-03
  1.3299e+03   1.16e-03
  1.3757e+03   1.06e-03
  1.4231e+03   9.68e-04
  1.4721e+03   8.84e-04
  1.5228e+03   8.07e-04
  1.5752e+03   7.37e-04
  1.6294e+03   6.72e-04
  1.6855e+03   6.11e-04
  1.7436e+03   5.57e-04
  1.8036e+03   5.07e-04
  1.8657e+03   4.60e-04
  1.9300e+03   4.18e-04
  1.9964e+03   3.79e-04
  2.0652e+03   3.44e-04
  2.1363e+03   3.10e-04
  2.2098e+03   2.81e-04
  2.2859e+03   2.54e-04
  2.3646e+03   2.29e-04
  2.4461e+03   2.06e-04
  2.5303e+03   1.86e-04
  2.6174e+03   1.67e-04
  2.7075e+03   1.49e-04
  2.8008e+03   1.34e-04
  2.8972e+03   1.20e-04
  2.9970e+03   1.07e-04
  3.1002e+03   9.52e-05
  3.2069e+03   8.48e-05
  3.3173e+03   7.52e-05
  3.4316e+03   6.66e-05
  3.5497e+03   5.91e-05
  3.6720e+03   5.22e-05
  3.7984e+03   4.57e-05
  3.9292e+03   4.05e-05
  4.0645e+03   3.56e-05
  4.2044e+03   3.10e-05
  4.3492e+03   2.72e-05
  4.4990e+03   2.38e-05
  4.6539e+03   2.07e-05
  4.8141e+03   1.79e-05
  4.9799e+03   1.56e-05
  5.1514e+03   1.34e-05
  5.3288e+03   1.15e-05
  5.5123e+03   9.92e-06
  5.7021e+03   8.53e-06
  5.8984e+03   7.25e-06
  6.1015e+03   6.16e-06
  6.3116e+03   5.27e-06
  6.5289e+03   4.46e-06
  6.7538e+03   3.72e-06
  6.9863e+03   3.17e-06
  7.2269e+03   2.66e-06
  7.4757e+03   2.21e-06
  7.7331e+03   1.84e-06
  7.9994e+03   1.54e-06
  8.2749e+03   1.27e-06
  8.5598e+03   1.04e-06
  8.8546e+03   8.61e-07
  9.1594e+03   7.05e-07
  9.4748e+03   5.67e-07
  9.8011e+03   4.63e-07
  1.0139e+04   3.76e-07
  1.0488e+04   3.00e-07
  1.0849e+04   2.39e-07
  1.1222e+04   1.93e-07
  1.1609e+04   1.52e-07
  1.2009e+04   1.18e-07
  1.2422e+04   9.42e-08
  1.2850e+04   7.36e-08
  1.3292e+04   5.65e-08
  1.3750e+04   4.34e-08
  1.4223e+04   3.33e-08
  1.4713e+04   2.50e-08
  1.5220e+04   1.84e-08
  1.5744e+04   1.37e-08
  1.6286e+04   9.98e-09
  1.6847e+04   7.07e-09
  1.7427e+04   4.96e-09
  1.8027e+04   3.40e-09
  1.8648e+04   2.25e-09
  1.9290e+04   1.44e-09
  1.9954e+04   8.96e-10
  2.0641e+04   5.30e-10
  2.1352e+04   2.98e-10
  2.2087e+04   1.58e-10
  2.2848e+04   7.87e-11
  2.3634e+04   3.61e-11
  2.4448e+04   1.54e-11
  2.5290e+04   6.01e-12
