#  E [MeV]   Flux [# cm^{-2} s^{-1}  MeV^{-1}]
  3.0000e+04   2.42e-26
  3.1051e+04   2.33e-26
  3.2139e+04   2.24e-26
  3.3266e+04   2.15e-26
  3.4432e+04   2.07e-26
  3.5638e+04   1.99e-26
  3.6887e+04   1.91e-26
  3.8180e+04   1.84e-26
  3.9518e+04   1.77e-26
  4.0903e+04   1.70e-26
  4.2336e+04   1.63e-26
  4.3820e+04   1.57e-26
  4.5355e+04   1.50e-26
  4.6945e+04   1.44e-26
  4.8590e+04   1.38e-26
  5.0293e+04   1.33e-26
  5.2055e+04   1.27e-26
  5.3879e+04   1.22e-26
  5.5767e+04   1.17e-26
  5.7722e+04   1.12e-26
  5.9745e+04   1.07e-26
  6.1838e+04   1.03e-26
  6.4005e+04   9.86e-27
  6.6248e+04   9.44e-27
  6.8570e+04   9.03e-27
  7.0973e+04   8.64e-27
  7.3460e+04   8.27e-27
  7.6034e+04   7.91e-27
  7.8699e+04   7.57e-27
  8.1457e+04   7.23e-27
  8.4311e+04   6.91e-27
  8.7266e+04   6.61e-27
  9.0324e+04   6.31e-27
  9.3490e+04   6.02e-27
  9.6766e+04   5.75e-27
  1.0016e+05   5.49e-27
  1.0367e+05   5.24e-27
  1.0730e+05   5.00e-27
  1.1106e+05   4.76e-27
  1.1495e+05   4.54e-27
  1.1898e+05   4.33e-27
  1.2315e+05   4.12e-27
  1.2747e+05   3.93e-27
  1.3193e+05   3.74e-27
  1.3656e+05   3.56e-27
  1.4134e+05   3.39e-27
  1.4629e+05   3.22e-27
  1.5142e+05   3.06e-27
  1.5673e+05   2.91e-27
  1.6222e+05   2.77e-27
  1.6790e+05   2.63e-27
  1.7379e+05   2.50e-27
  1.7988e+05   2.37e-27
  1.8618e+05   2.25e-27
  1.9271e+05   2.13e-27
  1.9946e+05   2.02e-27
  2.0645e+05   1.92e-27
  2.1369e+05   1.81e-27
  2.2117e+05   1.72e-27
  2.2892e+05   1.63e-27
  2.3695e+05   1.54e-27
  2.4525e+05   1.45e-27
  2.5385e+05   1.37e-27
  2.6274e+05   1.30e-27
  2.7195e+05   1.22e-27
  2.8148e+05   1.16e-27
  2.9134e+05   1.09e-27
  3.0155e+05   1.03e-27
  3.1212e+05   9.68e-28
  3.2306e+05   9.12e-28
  3.3438e+05   8.58e-28
  3.4610e+05   8.07e-28
  3.5823e+05   7.59e-28
  3.7078e+05   7.13e-28
  3.8377e+05   6.70e-28
  3.9722e+05   6.28e-28
  4.1114e+05   5.89e-28
  4.2555e+05   5.52e-28
  4.4046e+05   5.18e-28
  4.5590e+05   4.85e-28
  4.7188e+05   4.54e-28
  4.8841e+05   4.25e-28
  5.0553e+05   3.97e-28
  5.2324e+05   3.71e-28
  5.4158e+05   3.47e-28
  5.6056e+05   3.24e-28
  5.8020e+05   3.03e-28
  6.0054e+05   2.83e-28
  6.2158e+05   2.64e-28
  6.4337e+05   2.46e-28
  6.6591e+05   2.30e-28
  6.8925e+05   2.15e-28
  7.1340e+05   2.00e-28
  7.3840e+05   1.87e-28
  7.6428e+05   1.74e-28
  7.9106e+05   1.63e-28
  8.1878e+05   1.52e-28
  8.4748e+05   1.42e-28
  8.7718e+05   1.32e-28
  9.0792e+05   1.23e-28
  9.3973e+05   1.15e-28
  9.7267e+05   1.08e-28
  1.0068e+06   1.01e-28
  1.0420e+06   9.41e-29
  1.0785e+06   8.80e-29
  1.1163e+06   8.24e-29
  1.1555e+06   7.72e-29
  1.1960e+06   7.23e-29
  1.2379e+06   6.78e-29
  1.2813e+06   6.36e-29
  1.3262e+06   5.96e-29
  1.3726e+06   5.60e-29
  1.4207e+06   5.26e-29
  1.4705e+06   4.95e-29
  1.5220e+06   4.65e-29
  1.5754e+06   4.38e-29
  1.6306e+06   4.12e-29
  1.6877e+06   3.88e-29
  1.7469e+06   3.66e-29
  1.8081e+06   3.45e-29
  1.8715e+06   3.26e-29
  1.9370e+06   3.08e-29
  2.0049e+06   2.91e-29
  2.0752e+06   2.75e-29
  2.1479e+06   2.60e-29
  2.2232e+06   2.46e-29
  2.3011e+06   2.32e-29
  2.3817e+06   2.20e-29
  2.4652e+06   2.08e-29
  2.5516e+06   1.97e-29
  2.6410e+06   1.86e-29
  2.7336e+06   1.76e-29
  2.8294e+06   1.67e-29
  2.9285e+06   1.58e-29
  3.0311e+06   1.50e-29
  3.1374e+06   1.42e-29
  3.2473e+06   1.34e-29
  3.3611e+06   1.27e-29
  3.4789e+06   1.20e-29
  3.6008e+06   1.13e-29
  3.7270e+06   1.07e-29
  3.8576e+06   1.01e-29
  3.9928e+06   9.54e-30
  4.1327e+06   9.00e-30
  4.2775e+06   8.49e-30
  4.4274e+06   7.99e-30
  4.5826e+06   7.52e-30
  4.7432e+06   7.07e-30
  4.9094e+06   6.63e-30
  5.0815e+06   6.22e-30
  5.2595e+06   5.82e-30
  5.4438e+06   5.44e-30
  5.6346e+06   5.07e-30
  5.8321e+06   4.72e-30
  6.0365e+06   4.38e-30
  6.2480e+06   4.06e-30
  6.4670e+06   3.76e-30
  6.6936e+06   3.47e-30
  6.9282e+06   3.19e-30
  7.1709e+06   2.93e-30
  7.4222e+06   2.68e-30
  7.6823e+06   2.44e-30
  7.9516e+06   2.22e-30
  8.2302e+06   2.00e-30
  8.5186e+06   1.81e-30
  8.8172e+06   1.62e-30
  9.1262e+06   1.44e-30
  9.4460e+06   1.28e-30
  9.7770e+06   1.13e-30
  1.0120e+07   9.91e-31
  1.0474e+07   8.63e-31
  1.0841e+07   7.45e-31
  1.1221e+07   6.38e-31
  1.1614e+07   5.41e-31
  1.2022e+07   4.54e-31
  1.2443e+07   3.77e-31
  1.2879e+07   3.09e-31
  1.3330e+07   2.50e-31
  1.3797e+07   2.00e-31
  1.4281e+07   1.57e-31
  1.4781e+07   1.21e-31
  1.5299e+07   9.11e-32
  1.5835e+07   6.73e-32
  1.6390e+07   4.85e-32
  1.6965e+07   3.40e-32
  1.7559e+07   2.31e-32
  1.8175e+07   1.52e-32
  1.8812e+07   9.58e-33
  1.9471e+07   5.78e-33
  2.0153e+07   3.32e-33
  2.0859e+07   1.80e-33
  2.1590e+07   9.13e-34
  2.2347e+07   4.30e-34
  2.3130e+07   1.86e-34
  2.3941e+07   7.31e-35
  2.4780e+07   2.56e-35
  2.5648e+07   7.85e-36
  2.6547e+07   2.07e-36
  2.7477e+07   4.59e-37
  2.8440e+07   8.27e-38
