#  E [MeV]   Flux [# cm^{-2} s^{-1}  MeV^{-1}]
  3.0000e+04   2.49e-25
  3.1232e+04   2.38e-25
  3.2514e+04   2.27e-25
  3.3849e+04   2.16e-25
  3.5238e+04   2.06e-25
  3.6685e+04   1.96e-25
  3.8191e+04   1.87e-25
  3.9759e+04   1.78e-25
  4.1391e+04   1.70e-25
  4.3090e+04   1.62e-25
  4.4859e+04   1.54e-25
  4.6701e+04   1.47e-25
  4.8618e+04   1.40e-25
  5.0614e+04   1.33e-25
  5.2692e+04   1.27e-25
  5.4855e+04   1.21e-25
  5.7107e+04   1.15e-25
  5.9451e+04   1.09e-25
  6.1892e+04   1.04e-25
  6.4433e+04   9.88e-26
  6.7078e+04   9.40e-26
  6.9832e+04   8.93e-26
  7.2699e+04   8.49e-26
  7.5683e+04   8.06e-26
  7.8790e+04   7.66e-26
  8.2025e+04   7.28e-26
  8.5392e+04   6.91e-26
  8.8898e+04   6.56e-26
  9.2547e+04   6.23e-26
  9.6347e+04   5.91e-26
  1.0030e+05   5.61e-26
  1.0442e+05   5.32e-26
  1.0871e+05   5.05e-26
  1.1317e+05   4.79e-26
  1.1782e+05   4.54e-26
  1.2265e+05   4.30e-26
  1.2769e+05   4.07e-26
  1.3293e+05   3.86e-26
  1.3839e+05   3.66e-26
  1.4407e+05   3.46e-26
  1.4998e+05   3.28e-26
  1.5614e+05   3.10e-26
  1.6255e+05   2.93e-26
  1.6922e+05   2.77e-26
  1.7617e+05   2.62e-26
  1.8340e+05   2.48e-26
  1.9093e+05   2.34e-26
  1.9877e+05   2.21e-26
  2.0693e+05   2.09e-26
  2.1543e+05   1.97e-26
  2.2427e+05   1.86e-26
  2.3348e+05   1.75e-26
  2.4306e+05   1.65e-26
  2.5304e+05   1.55e-26
  2.6343e+05   1.46e-26
  2.7424e+05   1.38e-26
  2.8550e+05   1.29e-26
  2.9722e+05   1.22e-26
  3.0942e+05   1.14e-26
  3.2213e+05   1.07e-26
  3.3535e+05   1.01e-26
  3.4912e+05   9.45e-27
  3.6345e+05   8.86e-27
  3.7837e+05   8.30e-27
  3.9390e+05   7.77e-27
  4.1008e+05   7.27e-27
  4.2691e+05   6.80e-27
  4.4444e+05   6.35e-27
  4.6268e+05   5.93e-27
  4.8168e+05   5.54e-27
  5.0145e+05   5.16e-27
  5.2204e+05   4.81e-27
  5.4347e+05   4.48e-27
  5.6578e+05   4.17e-27
  5.8901e+05   3.88e-27
  6.1319e+05   3.61e-27
  6.3836e+05   3.35e-27
  6.6457e+05   3.11e-27
  6.9185e+05   2.89e-27
  7.2025e+05   2.68e-27
  7.4982e+05   2.48e-27
  7.8061e+05   2.30e-27
  8.1265e+05   2.13e-27
  8.4601e+05   1.97e-27
  8.8075e+05   1.82e-27
  9.1690e+05   1.69e-27
  9.5455e+05   1.56e-27
  9.9373e+05   1.44e-27
  1.0345e+06   1.33e-27
  1.0770e+06   1.23e-27
  1.1212e+06   1.14e-27
  1.1672e+06   1.05e-27
  1.2152e+06   9.67e-28
  1.2650e+06   8.93e-28
  1.3170e+06   8.23e-28
  1.3711e+06   7.59e-28
  1.4273e+06   7.00e-28
  1.4859e+06   6.45e-28
  1.5469e+06   5.94e-28
  1.6104e+06   5.48e-28
  1.6766e+06   5.04e-28
  1.7454e+06   4.64e-28
  1.8170e+06   4.27e-28
  1.8916e+06   3.93e-28
  1.9693e+06   3.61e-28
  2.0501e+06   3.32e-28
  2.1343e+06   3.04e-28
  2.2219e+06   2.79e-28
  2.3131e+06   2.56e-28
  2.4081e+06   2.34e-28
  2.5070e+06   2.14e-28
  2.6099e+06   1.96e-28
  2.7170e+06   1.79e-28
  2.8286e+06   1.63e-28
  2.9447e+06   1.49e-28
  3.0656e+06   1.36e-28
  3.1914e+06   1.23e-28
  3.3225e+06   1.12e-28
  3.4589e+06   1.02e-28
  3.6008e+06   9.22e-29
  3.7487e+06   8.34e-29
  3.9026e+06   7.53e-29
  4.0628e+06   6.80e-29
  4.2296e+06   6.12e-29
  4.4032e+06   5.50e-29
  4.5840e+06   4.94e-29
  4.7722e+06   4.41e-29
  4.9681e+06   3.94e-29
  5.1720e+06   3.52e-29
  5.3844e+06   3.12e-29
  5.6054e+06   2.77e-29
  5.8355e+06   2.46e-29
  6.0751e+06   2.16e-29
  6.3245e+06   1.91e-29
  6.5841e+06   1.68e-29
  6.8544e+06   1.46e-29
  7.1358e+06   1.28e-29
  7.4288e+06   1.11e-29
  7.7338e+06   9.61e-30
  8.0513e+06   8.33e-30
  8.3818e+06   7.16e-30
  8.7259e+06   6.11e-30
  9.0841e+06   5.22e-30
  9.4571e+06   4.42e-30
  9.8453e+06   3.72e-30
  1.0249e+07   3.13e-30
  1.0670e+07   2.60e-30
  1.1108e+07   2.15e-30
  1.1564e+07   1.77e-30
  1.2039e+07   1.44e-30
  1.2533e+07   1.16e-30
  1.3048e+07   9.31e-31
  1.3584e+07   7.33e-31
  1.4141e+07   5.76e-31
  1.4722e+07   4.45e-31
  1.5326e+07   3.36e-31
  1.5955e+07   2.53e-31
  1.6610e+07   1.86e-31
  1.7292e+07   1.33e-31
  1.8002e+07   9.40e-32
  1.8741e+07   6.42e-32
  1.9511e+07   4.22e-32
  2.0312e+07   2.72e-32
  2.1145e+07   1.67e-32
  2.2013e+07   9.71e-33
  2.2917e+07   5.41e-33
  2.3858e+07   2.79e-33
  2.4837e+07   1.33e-33
  2.5857e+07   5.86e-34
  2.6919e+07   2.28e-34
  2.8024e+07   7.82e-35
  2.9174e+07   2.29e-35
  3.0372e+07   5.46e-36
  3.1619e+07   1.04e-36
  3.2917e+07   1.47e-37
  3.4268e+07   1.43e-38
  3.5675e+07   9.01e-40
  3.7140e+07   3.20e-41
  3.8664e+07   5.46e-43
  4.0252e+07   3.77e-45
  4.1904e+07   7.90e-48
  4.3624e+07   3.53e-51
  4.5415e+07   2.12e-55
  4.7280e+07   8.77e-61
  4.9221e+07   1.02e-67
  5.1241e+07   4.92e-72
  5.3345e+07   4.46e-72
  5.5535e+07   4.06e-72
  5.7815e+07   3.71e-72
  6.0188e+07   3.38e-72
  6.2659e+07   3.09e-72
  6.5232e+07   2.83e-72
  6.7910e+07   2.59e-72
  7.0698e+07   2.36e-72
  7.3600e+07   2.15e-72
  7.6621e+07   1.95e-72
  7.9767e+07   1.75e-72
  8.3042e+07   1.56e-72
  8.6451e+07   1.39e-72
  9.0000e+07   1.26e-72
