#  E [GeV]   # per interaction  [GeV^{-1}]
  3.0000e+01   2.95e-01
  3.0782e+01   2.85e-01
  3.1585e+01   2.76e-01
  3.2409e+01   2.67e-01
  3.3255e+01   2.58e-01
  3.4122e+01   2.49e-01
  3.5012e+01   2.41e-01
  3.5925e+01   2.33e-01
  3.6862e+01   2.25e-01
  3.7824e+01   2.17e-01
  3.8810e+01   2.10e-01
  3.9822e+01   2.02e-01
  4.0861e+01   1.95e-01
  4.1927e+01   1.89e-01
  4.3021e+01   1.82e-01
  4.4143e+01   1.75e-01
  4.5294e+01   1.69e-01
  4.6475e+01   1.63e-01
  4.7688e+01   1.57e-01
  4.8931e+01   1.52e-01
  5.0208e+01   1.46e-01
  5.1517e+01   1.41e-01
  5.2861e+01   1.36e-01
  5.4240e+01   1.31e-01
  5.5654e+01   1.26e-01
  5.7106e+01   1.21e-01
  5.8596e+01   1.16e-01
  6.0124e+01   1.12e-01
  6.1692e+01   1.08e-01
  6.3301e+01   1.04e-01
  6.4952e+01   9.96e-02
  6.6647e+01   9.57e-02
  6.8385e+01   9.20e-02
  7.0169e+01   8.84e-02
  7.1999e+01   8.49e-02
  7.3877e+01   8.16e-02
  7.5804e+01   7.83e-02
  7.7781e+01   7.52e-02
  7.9810e+01   7.22e-02
  8.1891e+01   6.92e-02
  8.4027e+01   6.64e-02
  8.6219e+01   6.37e-02
  8.8468e+01   6.11e-02
  9.0775e+01   5.86e-02
  9.3143e+01   5.61e-02
  9.5572e+01   5.38e-02
  9.8065e+01   5.15e-02
  1.0062e+02   4.93e-02
  1.0325e+02   4.72e-02
  1.0594e+02   4.52e-02
  1.0870e+02   4.33e-02
  1.1154e+02   4.14e-02
  1.1445e+02   3.96e-02
  1.1743e+02   3.79e-02
  1.2050e+02   3.62e-02
  1.2364e+02   3.46e-02
  1.2686e+02   3.30e-02
  1.3017e+02   3.15e-02
  1.3357e+02   3.01e-02
  1.3705e+02   2.87e-02
  1.4063e+02   2.74e-02
  1.4429e+02   2.61e-02
  1.4806e+02   2.49e-02
  1.5192e+02   2.37e-02
  1.5588e+02   2.26e-02
  1.5995e+02   2.15e-02
  1.6412e+02   2.05e-02
  1.6840e+02   1.95e-02
  1.7279e+02   1.86e-02
  1.7730e+02   1.77e-02
  1.8193e+02   1.68e-02
  1.8667e+02   1.59e-02
  1.9154e+02   1.52e-02
  1.9654e+02   1.44e-02
  2.0166e+02   1.37e-02
  2.0692e+02   1.30e-02
  2.1232e+02   1.23e-02
  2.1786e+02   1.17e-02
  2.2354e+02   1.10e-02
  2.2937e+02   1.05e-02
  2.3535e+02   9.90e-03
  2.4149e+02   9.37e-03
  2.4779e+02   8.87e-03
  2.5425e+02   8.38e-03
  2.6088e+02   7.91e-03
  2.6769e+02   7.47e-03
  2.7467e+02   7.05e-03
  2.8184e+02   6.66e-03
  2.8919e+02   6.27e-03
  2.9673e+02   5.91e-03
  3.0447e+02   5.57e-03
  3.1241e+02   5.24e-03
  3.2056e+02   4.93e-03
  3.2892e+02   4.63e-03
  3.3750e+02   4.35e-03
  3.4630e+02   4.09e-03
  3.5533e+02   3.84e-03
  3.6460e+02   3.60e-03
  3.7411e+02   3.37e-03
  3.8387e+02   3.16e-03
  3.9388e+02   2.96e-03
  4.0416e+02   2.77e-03
  4.1470e+02   2.59e-03
  4.2551e+02   2.42e-03
  4.3661e+02   2.27e-03
  4.4800e+02   2.12e-03
  4.5969e+02   1.97e-03
  4.7168e+02   1.84e-03
  4.8398e+02   1.71e-03
  4.9660e+02   1.60e-03
  5.0956e+02   1.48e-03
  5.2285e+02   1.38e-03
  5.3648e+02   1.28e-03
  5.5048e+02   1.19e-03
  5.6483e+02   1.11e-03
  5.7957e+02   1.02e-03
  5.9468e+02   9.48e-04
  6.1020e+02   8.80e-04
  6.2611e+02   8.16e-04
  6.4244e+02   7.55e-04
  6.5920e+02   6.97e-04
  6.7639e+02   6.45e-04
  6.9403e+02   5.97e-04
  7.1214e+02   5.51e-04
  7.3071e+02   5.08e-04
  7.4977e+02   4.68e-04
  7.6933e+02   4.33e-04
  7.8939e+02   3.99e-04
  8.0998e+02   3.68e-04
  8.3111e+02   3.38e-04
  8.5279e+02   3.11e-04
  8.7503e+02   2.87e-04
  8.9785e+02   2.64e-04
  9.2127e+02   2.42e-04
  9.4530e+02   2.22e-04
  9.6996e+02   2.04e-04
  9.9526e+02   1.88e-04
  1.0212e+03   1.72e-04
  1.0479e+03   1.58e-04
  1.0752e+03   1.45e-04
  1.1032e+03   1.33e-04
  1.1320e+03   1.22e-04
  1.1615e+03   1.12e-04
  1.1918e+03   1.02e-04
  1.2229e+03   9.39e-05
  1.2548e+03   8.62e-05
  1.2875e+03   7.90e-05
  1.3211e+03   7.21e-05
  1.3556e+03   6.62e-05
  1.3909e+03   6.09e-05
  1.4272e+03   5.58e-05
  1.4644e+03   5.10e-05
  1.5026e+03   4.67e-05
  1.5418e+03   4.30e-05
  1.5820e+03   3.95e-05
  1.6233e+03   3.62e-05
  1.6657e+03   3.31e-05
  1.7091e+03   3.05e-05
  1.7537e+03   2.81e-05
  1.7994e+03   2.59e-05
  1.8464e+03   2.37e-05
  1.8945e+03   2.18e-05
  1.9439e+03   2.02e-05
  1.9946e+03   1.88e-05
  2.0467e+03   1.74e-05
  2.1000e+03   1.60e-05
  2.1548e+03   1.49e-05
  2.2110e+03   1.40e-05
  2.2687e+03   1.30e-05
  2.3279e+03   1.21e-05
  2.3886e+03   1.14e-05
  2.4509e+03   1.07e-05
  2.5148e+03   1.01e-05
  2.5804e+03   9.57e-06
  2.6477e+03   9.03e-06
  2.7168e+03   8.61e-06
  2.7876e+03   8.24e-06
  2.8603e+03   7.88e-06
  2.9349e+03   7.53e-06
  3.0115e+03   7.25e-06
  3.0900e+03   7.08e-06
  3.1706e+03   6.92e-06
  3.2533e+03   6.75e-06
  3.3382e+03   6.59e-06
  3.4253e+03   6.58e-06
  3.5146e+03   6.58e-06
  3.6063e+03   6.58e-06
  3.7003e+03   6.56e-06
  3.7969e+03   6.68e-06
  3.8959e+03   6.99e-06
  3.9975e+03   7.27e-06
  4.1018e+03   7.51e-06
  4.2088e+03   7.73e-06
  4.3185e+03   8.55e-06
  4.4312e+03   9.34e-06
  4.5467e+03   1.01e-05
  4.6653e+03   1.07e-05
  4.7870e+03   1.01e-05
  4.9119e+03   8.16e-06
  5.0400e+03   6.38e-06
