#  E [GeV]   # per interaction  [GeV^{-1}]
  3.0000e+01   3.58e-01
  3.0696e+01   3.45e-01
  3.1408e+01   3.32e-01
  3.2137e+01   3.20e-01
  3.2883e+01   3.08e-01
  3.3646e+01   2.97e-01
  3.4426e+01   2.86e-01
  3.5225e+01   2.75e-01
  3.6042e+01   2.65e-01
  3.6878e+01   2.55e-01
  3.7734e+01   2.45e-01
  3.8609e+01   2.36e-01
  3.9505e+01   2.27e-01
  4.0422e+01   2.18e-01
  4.1360e+01   2.10e-01
  4.2319e+01   2.02e-01
  4.3301e+01   1.94e-01
  4.4306e+01   1.87e-01
  4.5334e+01   1.79e-01
  4.6386e+01   1.72e-01
  4.7462e+01   1.66e-01
  4.8563e+01   1.59e-01
  4.9690e+01   1.53e-01
  5.0843e+01   1.47e-01
  5.2022e+01   1.41e-01
  5.3229e+01   1.35e-01
  5.4464e+01   1.29e-01
  5.5728e+01   1.24e-01
  5.7021e+01   1.19e-01
  5.8344e+01   1.14e-01
  5.9697e+01   1.09e-01
  6.1083e+01   1.05e-01
  6.2500e+01   1.00e-01
  6.3950e+01   9.62e-02
  6.5434e+01   9.21e-02
  6.6952e+01   8.81e-02
  6.8505e+01   8.43e-02
  7.0095e+01   8.06e-02
  7.1721e+01   7.71e-02
  7.3385e+01   7.37e-02
  7.5088e+01   7.04e-02
  7.6830e+01   6.72e-02
  7.8612e+01   6.42e-02
  8.0436e+01   6.13e-02
  8.2302e+01   5.85e-02
  8.4212e+01   5.58e-02
  8.6166e+01   5.32e-02
  8.8165e+01   5.08e-02
  9.0210e+01   4.84e-02
  9.2304e+01   4.62e-02
  9.4445e+01   4.40e-02
  9.6636e+01   4.18e-02
  9.8878e+01   3.99e-02
  1.0117e+02   3.80e-02
  1.0352e+02   3.61e-02
  1.0592e+02   3.43e-02
  1.0838e+02   3.26e-02
  1.1089e+02   3.10e-02
  1.1347e+02   2.95e-02
  1.1610e+02   2.80e-02
  1.1879e+02   2.66e-02
  1.2155e+02   2.52e-02
  1.2437e+02   2.39e-02
  1.2725e+02   2.27e-02
  1.3021e+02   2.15e-02
  1.3323e+02   2.04e-02
  1.3632e+02   1.93e-02
  1.3948e+02   1.83e-02
  1.4272e+02   1.73e-02
  1.4603e+02   1.64e-02
  1.4942e+02   1.55e-02
  1.5288e+02   1.46e-02
  1.5643e+02   1.38e-02
  1.6006e+02   1.30e-02
  1.6377e+02   1.23e-02
  1.6757e+02   1.16e-02
  1.7146e+02   1.09e-02
  1.7544e+02   1.03e-02
  1.7951e+02   9.69e-03
  1.8368e+02   9.12e-03
  1.8794e+02   8.57e-03
  1.9230e+02   8.05e-03
  1.9676e+02   7.57e-03
  2.0132e+02   7.12e-03
  2.0600e+02   6.68e-03
  2.1078e+02   6.27e-03
  2.1567e+02   5.87e-03
  2.2067e+02   5.50e-03
  2.2579e+02   5.16e-03
  2.3103e+02   4.84e-03
  2.3639e+02   4.52e-03
  2.4187e+02   4.22e-03
  2.4748e+02   3.95e-03
  2.5323e+02   3.70e-03
  2.5910e+02   3.45e-03
  2.6511e+02   3.22e-03
  2.7126e+02   2.99e-03
  2.7756e+02   2.79e-03
  2.8400e+02   2.60e-03
  2.9059e+02   2.42e-03
  2.9733e+02   2.25e-03
  3.0423e+02   2.09e-03
  3.1129e+02   1.94e-03
  3.1851e+02   1.80e-03
  3.2590e+02   1.67e-03
  3.3346e+02   1.55e-03
  3.4120e+02   1.43e-03
  3.4911e+02   1.33e-03
  3.5721e+02   1.23e-03
  3.6550e+02   1.14e-03
  3.7398e+02   1.05e-03
  3.8266e+02   9.65e-04
  3.9154e+02   8.92e-04
  4.0062e+02   8.25e-04
  4.0991e+02   7.61e-04
  4.1943e+02   6.99e-04
  4.2916e+02   6.41e-04
  4.3911e+02   5.90e-04
  4.4930e+02   5.44e-04
  4.5973e+02   5.00e-04
  4.7039e+02   4.59e-04
  4.8131e+02   4.19e-04
  4.9247e+02   3.84e-04
  5.0390e+02   3.53e-04
  5.1559e+02   3.24e-04
  5.2755e+02   2.96e-04
  5.3979e+02   2.69e-04
  5.5232e+02   2.46e-04
  5.6513e+02   2.26e-04
  5.7824e+02   2.06e-04
  5.9166e+02   1.88e-04
  6.0539e+02   1.70e-04
  6.1943e+02   1.55e-04
  6.3381e+02   1.42e-04
  6.4851e+02   1.29e-04
  6.6356e+02   1.17e-04
  6.7895e+02   1.06e-04
  6.9471e+02   9.62e-05
  7.1082e+02   8.78e-05
  7.2732e+02   7.99e-05
  7.4419e+02   7.23e-05
  7.6146e+02   6.52e-05
  7.7912e+02   5.91e-05
  7.9720e+02   5.39e-05
  8.1570e+02   4.89e-05
  8.3462e+02   4.42e-05
  8.5399e+02   3.98e-05
  8.7380e+02   3.60e-05
  8.9407e+02   3.28e-05
  9.1482e+02   2.98e-05
  9.3604e+02   2.70e-05
  9.5776e+02   2.42e-05
  9.7998e+02   2.19e-05
  1.0027e+03   2.00e-05
  1.0260e+03   1.82e-05
  1.0498e+03   1.65e-05
  1.0741e+03   1.48e-05
  1.0991e+03   1.34e-05
  1.1246e+03   1.23e-05
  1.1507e+03   1.12e-05
  1.1774e+03   1.02e-05
  1.2047e+03   9.18e-06
  1.2326e+03   8.35e-06
  1.2612e+03   7.67e-06
  1.2905e+03   7.03e-06
  1.3204e+03   6.41e-06
  1.3511e+03   5.83e-06
  1.3824e+03   5.33e-06
  1.4145e+03   4.93e-06
  1.4473e+03   4.54e-06
  1.4809e+03   4.17e-06
  1.5152e+03   3.82e-06
  1.5504e+03   3.52e-06
  1.5864e+03   3.27e-06
  1.6232e+03   3.03e-06
  1.6608e+03   2.80e-06
  1.6994e+03   2.58e-06
  1.7388e+03   2.39e-06
  1.7791e+03   2.23e-06
  1.8204e+03   2.08e-06
  1.8626e+03   1.93e-06
  1.9059e+03   1.79e-06
  1.9501e+03   1.67e-06
  1.9953e+03   1.56e-06
  2.0416e+03   1.46e-06
  2.0890e+03   1.36e-06
  2.1375e+03   1.27e-06
  2.1870e+03   1.18e-06
  2.2378e+03   1.10e-06
  2.2897e+03   1.03e-06
  2.3428e+03   9.61e-07
  2.3972e+03   8.93e-07
  2.4528e+03   8.30e-07
  2.5097e+03   7.70e-07
  2.5680e+03   7.13e-07
  2.6275e+03   6.58e-07
  2.6885e+03   6.06e-07
  2.7509e+03   5.61e-07
  2.8147e+03   5.27e-07
  2.8800e+03   4.95e-07
