#  E [MeV]   Flux [# cm^{-2} s^{-1}  MeV^{-1}]
  3.0000e+04   4.51e-23
  3.0696e+04   4.34e-23
  3.1408e+04   4.18e-23
  3.2137e+04   4.03e-23
  3.2883e+04   3.88e-23
  3.3646e+04   3.74e-23
  3.4426e+04   3.60e-23
  3.5225e+04   3.47e-23
  3.6042e+04   3.34e-23
  3.6878e+04   3.21e-23
  3.7734e+04   3.09e-23
  3.8609e+04   2.97e-23
  3.9505e+04   2.86e-23
  4.0422e+04   2.75e-23
  4.1360e+04   2.65e-23
  4.2319e+04   2.54e-23
  4.3301e+04   2.45e-23
  4.4306e+04   2.35e-23
  4.5334e+04   2.26e-23
  4.6386e+04   2.17e-23
  4.7462e+04   2.09e-23
  4.8563e+04   2.00e-23
  4.9690e+04   1.92e-23
  5.0843e+04   1.85e-23
  5.2022e+04   1.77e-23
  5.3229e+04   1.70e-23
  5.4464e+04   1.63e-23
  5.5728e+04   1.56e-23
  5.7021e+04   1.50e-23
  5.8344e+04   1.44e-23
  5.9697e+04   1.38e-23
  6.1083e+04   1.32e-23
  6.2500e+04   1.26e-23
  6.3950e+04   1.21e-23
  6.5434e+04   1.16e-23
  6.6952e+04   1.11e-23
  6.8505e+04   1.06e-23
  7.0095e+04   1.02e-23
  7.1721e+04   9.71e-24
  7.3385e+04   9.28e-24
  7.5088e+04   8.87e-24
  7.6830e+04   8.47e-24
  7.8612e+04   8.09e-24
  8.0436e+04   7.73e-24
  8.2302e+04   7.37e-24
  8.4212e+04   7.03e-24
  8.6166e+04   6.71e-24
  8.8165e+04   6.40e-24
  9.0210e+04   6.10e-24
  9.2304e+04   5.82e-24
  9.4445e+04   5.54e-24
  9.6636e+04   5.27e-24
  9.8878e+04   5.02e-24
  1.0117e+05   4.78e-24
  1.0352e+05   4.55e-24
  1.0592e+05   4.33e-24
  1.0838e+05   4.11e-24
  1.1089e+05   3.91e-24
  1.1347e+05   3.71e-24
  1.1610e+05   3.53e-24
  1.1879e+05   3.35e-24
  1.2155e+05   3.18e-24
  1.2437e+05   3.01e-24
  1.2725e+05   2.86e-24
  1.3021e+05   2.71e-24
  1.3323e+05   2.57e-24
  1.3632e+05   2.43e-24
  1.3948e+05   2.30e-24
  1.4272e+05   2.18e-24
  1.4603e+05   2.06e-24
  1.4942e+05   1.95e-24
  1.5288e+05   1.84e-24
  1.5643e+05   1.74e-24
  1.6006e+05   1.64e-24
  1.6377e+05   1.55e-24
  1.6757e+05   1.46e-24
  1.7146e+05   1.37e-24
  1.7544e+05   1.29e-24
  1.7951e+05   1.22e-24
  1.8368e+05   1.15e-24
  1.8794e+05   1.08e-24
  1.9230e+05   1.01e-24
  1.9676e+05   9.54e-25
  2.0132e+05   8.97e-25
  2.0600e+05   8.42e-25
  2.1078e+05   7.90e-25
  2.1567e+05   7.39e-25
  2.2067e+05   6.93e-25
  2.2579e+05   6.51e-25
  2.3103e+05   6.09e-25
  2.3639e+05   5.70e-25
  2.4187e+05   5.32e-25
  2.4748e+05   4.97e-25
  2.5323e+05   4.66e-25
  2.5910e+05   4.35e-25
  2.6511e+05   4.05e-25
  2.7126e+05   3.77e-25
  2.7756e+05   3.52e-25
  2.8400e+05   3.28e-25
  2.9059e+05   3.05e-25
  2.9733e+05   2.84e-25
  3.0423e+05   2.63e-25
  3.1129e+05   2.44e-25
  3.1851e+05   2.27e-25
  3.2590e+05   2.11e-25
  3.3346e+05   1.95e-25
  3.4120e+05   1.80e-25
  3.4911e+05   1.67e-25
  3.5721e+05   1.55e-25
  3.6550e+05   1.43e-25
  3.7398e+05   1.32e-25
  3.8266e+05   1.22e-25
  3.9154e+05   1.12e-25
  4.0062e+05   1.04e-25
  4.0991e+05   9.58e-26
  4.1943e+05   8.81e-26
  4.2916e+05   8.07e-26
  4.3911e+05   7.43e-26
  4.4930e+05   6.86e-26
  4.5973e+05   6.30e-26
  4.7039e+05   5.78e-26
  4.8131e+05   5.28e-26
  4.9247e+05   4.84e-26
  5.0390e+05   4.45e-26
  5.1559e+05   4.08e-26
  5.2755e+05   3.73e-26
  5.3979e+05   3.39e-26
  5.5232e+05   3.10e-26
  5.6513e+05   2.84e-26
  5.7824e+05   2.60e-26
  5.9166e+05   2.36e-26
  6.0539e+05   2.14e-26
  6.1943e+05   1.95e-26
  6.3381e+05   1.78e-26
  6.4851e+05   1.63e-26
  6.6356e+05   1.48e-26
  6.7895e+05   1.33e-26
  6.9471e+05   1.21e-26
  7.1082e+05   1.11e-26
  7.2732e+05   1.01e-26
  7.4419e+05   9.11e-27
  7.6146e+05   8.21e-27
  7.7912e+05   7.44e-27
  7.9720e+05   6.79e-27
  8.1570e+05   6.16e-27
  8.3462e+05   5.57e-27
  8.5399e+05   5.01e-27
  8.7380e+05   4.54e-27
  8.9407e+05   4.14e-27
  9.1482e+05   3.76e-27
  9.3604e+05   3.40e-27
  9.5776e+05   3.05e-27
  9.7998e+05   2.76e-27
  1.0027e+06   2.52e-27
  1.0260e+06   2.29e-27
  1.0498e+06   2.07e-27
  1.0741e+06   1.87e-27
  1.0991e+06   1.69e-27
  1.1246e+06   1.55e-27
  1.1507e+06   1.41e-27
  1.1774e+06   1.28e-27
  1.2047e+06   1.16e-27
  1.2326e+06   1.05e-27
  1.2612e+06   9.66e-28
  1.2905e+06   8.85e-28
  1.3204e+06   8.08e-28
  1.3511e+06   7.35e-28
  1.3824e+06   6.72e-28
  1.4145e+06   6.21e-28
  1.4473e+06   5.72e-28
  1.4809e+06   5.26e-28
  1.5152e+06   4.82e-28
  1.5504e+06   4.43e-28
  1.5864e+06   4.12e-28
  1.6232e+06   3.81e-28
  1.6608e+06   3.52e-28
  1.6994e+06   3.25e-28
  1.7388e+06   3.01e-28
  1.7791e+06   2.81e-28
  1.8204e+06   2.61e-28
  1.8626e+06   2.43e-28
  1.9059e+06   2.26e-28
  1.9501e+06   2.10e-28
  1.9953e+06   1.97e-28
  2.0416e+06   1.84e-28
  2.0890e+06   1.71e-28
  2.1375e+06   1.60e-28
  2.1870e+06   1.49e-28
  2.2378e+06   1.39e-28
  2.2897e+06   1.30e-28
  2.3428e+06   1.21e-28
  2.3972e+06   1.13e-28
  2.4528e+06   1.05e-28
  2.5097e+06   9.70e-29
  2.5680e+06   8.98e-29
  2.6275e+06   8.29e-29
  2.6885e+06   7.64e-29
  2.7509e+06   7.07e-29
  2.8147e+06   6.64e-29
  2.8800e+06   6.23e-29
