#  E [GeV]   # per interaction  [GeV^{-1}]
  3.0000e+01   5.62e-01
  3.1123e+01   5.39e-01
  3.2288e+01   5.18e-01
  3.3497e+01   4.97e-01
  3.4751e+01   4.77e-01
  3.6051e+01   4.58e-01
  3.7401e+01   4.39e-01
  3.8801e+01   4.21e-01
  4.0253e+01   4.04e-01
  4.1760e+01   3.88e-01
  4.3324e+01   3.72e-01
  4.4945e+01   3.57e-01
  4.6628e+01   3.42e-01
  4.8373e+01   3.28e-01
  5.0184e+01   3.15e-01
  5.2063e+01   3.02e-01
  5.4011e+01   2.89e-01
  5.6033e+01   2.77e-01
  5.8131e+01   2.66e-01
  6.0307e+01   2.55e-01
  6.2564e+01   2.44e-01
  6.4906e+01   2.34e-01
  6.7336e+01   2.24e-01
  6.9857e+01   2.14e-01
  7.2472e+01   2.05e-01
  7.5184e+01   1.97e-01
  7.7999e+01   1.88e-01
  8.0919e+01   1.80e-01
  8.3948e+01   1.72e-01
  8.7090e+01   1.65e-01
  9.0350e+01   1.58e-01
  9.3732e+01   1.51e-01
  9.7241e+01   1.44e-01
  1.0088e+02   1.38e-01
  1.0466e+02   1.32e-01
  1.0858e+02   1.26e-01
  1.1264e+02   1.20e-01
  1.1686e+02   1.15e-01
  1.2123e+02   1.10e-01
  1.2577e+02   1.05e-01
  1.3048e+02   1.00e-01
  1.3536e+02   9.56e-02
  1.4043e+02   9.12e-02
  1.4568e+02   8.69e-02
  1.5114e+02   8.29e-02
  1.5680e+02   7.90e-02
  1.6266e+02   7.52e-02
  1.6875e+02   7.16e-02
  1.7507e+02   6.82e-02
  1.8162e+02   6.49e-02
  1.8842e+02   6.17e-02
  1.9548e+02   5.87e-02
  2.0279e+02   5.58e-02
  2.1039e+02   5.30e-02
  2.1826e+02   5.03e-02
  2.2643e+02   4.78e-02
  2.3491e+02   4.53e-02
  2.4370e+02   4.30e-02
  2.5282e+02   4.08e-02
  2.6229e+02   3.87e-02
  2.7211e+02   3.66e-02
  2.8229e+02   3.46e-02
  2.9286e+02   3.28e-02
  3.0382e+02   3.10e-02
  3.1519e+02   2.92e-02
  3.2699e+02   2.76e-02
  3.3923e+02   2.60e-02
  3.5193e+02   2.46e-02
  3.6511e+02   2.31e-02
  3.7877e+02   2.18e-02
  3.9295e+02   2.05e-02
  4.0766e+02   1.93e-02
  4.2292e+02   1.81e-02
  4.3875e+02   1.70e-02
  4.5518e+02   1.60e-02
  4.7222e+02   1.50e-02
  4.8989e+02   1.41e-02
  5.0823e+02   1.32e-02
  5.2726e+02   1.24e-02
  5.4699e+02   1.16e-02
  5.6747e+02   1.08e-02
  5.8871e+02   1.01e-02
  6.1075e+02   9.45e-03
  6.3361e+02   8.83e-03
  6.5733e+02   8.24e-03
  6.8194e+02   7.69e-03
  7.0746e+02   7.17e-03
  7.3395e+02   6.68e-03
  7.6142e+02   6.22e-03
  7.8992e+02   5.79e-03
  8.1949e+02   5.39e-03
  8.5017e+02   5.02e-03
  8.8199e+02   4.67e-03
  9.1501e+02   4.34e-03
  9.4926e+02   4.03e-03
  9.8479e+02   3.74e-03
  1.0217e+03   3.48e-03
  1.0599e+03   3.23e-03
  1.0996e+03   3.00e-03
  1.1407e+03   2.78e-03
  1.1834e+03   2.58e-03
  1.2277e+03   2.39e-03
  1.2737e+03   2.21e-03
  1.3214e+03   2.05e-03
  1.3708e+03   1.90e-03
  1.4222e+03   1.76e-03
  1.4754e+03   1.63e-03
  1.5306e+03   1.51e-03
  1.5879e+03   1.39e-03
  1.6474e+03   1.29e-03
  1.7090e+03   1.19e-03
  1.7730e+03   1.10e-03
  1.8394e+03   1.02e-03
  1.9082e+03   9.39e-04
  1.9797e+03   8.67e-04
  2.0538e+03   8.00e-04
  2.1306e+03   7.37e-04
  2.2104e+03   6.79e-04
  2.2931e+03   6.26e-04
  2.3790e+03   5.75e-04
  2.4680e+03   5.29e-04
  2.5604e+03   4.87e-04
  2.6563e+03   4.47e-04
  2.7557e+03   4.10e-04
  2.8589e+03   3.76e-04
  2.9659e+03   3.45e-04
  3.0769e+03   3.15e-04
  3.1921e+03   2.89e-04
  3.3116e+03   2.64e-04
  3.4355e+03   2.41e-04
  3.5641e+03   2.20e-04
  3.6976e+03   2.01e-04
  3.8360e+03   1.83e-04
  3.9796e+03   1.66e-04
  4.1285e+03   1.51e-04
  4.2831e+03   1.37e-04
  4.4434e+03   1.24e-04
  4.6097e+03   1.13e-04
  4.7823e+03   1.02e-04
  4.9613e+03   9.16e-05
  5.1470e+03   8.27e-05
  5.3397e+03   7.43e-05
  5.5396e+03   6.67e-05
  5.7470e+03   6.00e-05
  5.9621e+03   5.36e-05
  6.1853e+03   4.79e-05
  6.4168e+03   4.28e-05
  6.6570e+03   3.81e-05
  6.9062e+03   3.38e-05
  7.1647e+03   3.01e-05
  7.4329e+03   2.66e-05
  7.7112e+03   2.34e-05
  7.9998e+03   2.07e-05
  8.2993e+03   1.82e-05
  8.6100e+03   1.58e-05
  8.9323e+03   1.39e-05
  9.2666e+03   1.21e-05
  9.6135e+03   1.05e-05
  9.9734e+03   9.06e-06
  1.0347e+04   7.82e-06
  1.0734e+04   6.69e-06
  1.1136e+04   5.72e-06
  1.1553e+04   4.88e-06
  1.1985e+04   4.12e-06
  1.2434e+04   3.47e-06
  1.2899e+04   2.92e-06
  1.3382e+04   2.42e-06
  1.3883e+04   2.00e-06
  1.4403e+04   1.65e-06
  1.4942e+04   1.34e-06
  1.5501e+04   1.08e-06
  1.6081e+04   8.63e-07
  1.6683e+04   6.80e-07
  1.7308e+04   5.27e-07
  1.7956e+04   4.07e-07
  1.8628e+04   3.07e-07
  1.9325e+04   2.26e-07
  2.0049e+04   1.64e-07
  2.0799e+04   1.16e-07
  2.1578e+04   7.90e-08
  2.2386e+04   5.24e-08
  2.3224e+04   3.32e-08
  2.4093e+04   1.99e-08
  2.4995e+04   1.14e-08
  2.5930e+04   6.05e-09
  2.6901e+04   2.94e-09
  2.7908e+04   1.31e-09
  2.8953e+04   5.24e-10
  3.0037e+04   1.80e-10
  3.1161e+04   5.27e-11
  3.2327e+04   1.27e-11
  3.3537e+04   2.35e-12
  3.4793e+04   3.26e-13
  3.6095e+04   3.23e-14
  3.7446e+04   1.95e-15
  3.8848e+04   6.75e-17
  4.0302e+04   1.31e-18
  4.1811e+04   9.21e-21
  4.3376e+04   1.90e-23
  4.5000e+04   9.32e-27
