#  E [MeV]   Flux [# cm^{-2} s^{-1}  MeV^{-1}]
  3.0000e+04   2.02e-20
  3.1123e+04   1.94e-20
  3.2288e+04   1.86e-20
  3.3497e+04   1.79e-20
  3.4751e+04   1.71e-20
  3.6051e+04   1.64e-20
  3.7401e+04   1.58e-20
  3.8801e+04   1.51e-20
  4.0253e+04   1.45e-20
  4.1760e+04   1.39e-20
  4.3324e+04   1.34e-20
  4.4945e+04   1.28e-20
  4.6628e+04   1.23e-20
  4.8373e+04   1.18e-20
  5.0184e+04   1.13e-20
  5.2063e+04   1.08e-20
  5.4011e+04   1.04e-20
  5.6033e+04   9.96e-21
  5.8131e+04   9.55e-21
  6.0307e+04   9.15e-21
  6.2564e+04   8.77e-21
  6.4906e+04   8.40e-21
  6.7336e+04   8.05e-21
  6.9857e+04   7.71e-21
  7.2472e+04   7.38e-21
  7.5184e+04   7.07e-21
  7.7999e+04   6.77e-21
  8.0919e+04   6.48e-21
  8.3948e+04   6.20e-21
  8.7090e+04   5.93e-21
  9.0350e+04   5.67e-21
  9.3732e+04   5.43e-21
  9.7241e+04   5.19e-21
  1.0088e+05   4.96e-21
  1.0466e+05   4.74e-21
  1.0858e+05   4.53e-21
  1.1264e+05   4.33e-21
  1.1686e+05   4.14e-21
  1.2123e+05   3.95e-21
  1.2577e+05   3.77e-21
  1.3048e+05   3.60e-21
  1.3536e+05   3.43e-21
  1.4043e+05   3.28e-21
  1.4568e+05   3.12e-21
  1.5114e+05   2.98e-21
  1.5680e+05   2.84e-21
  1.6266e+05   2.70e-21
  1.6875e+05   2.57e-21
  1.7507e+05   2.45e-21
  1.8162e+05   2.33e-21
  1.8842e+05   2.22e-21
  1.9548e+05   2.11e-21
  2.0279e+05   2.00e-21
  2.1039e+05   1.90e-21
  2.1826e+05   1.81e-21
  2.2643e+05   1.72e-21
  2.3491e+05   1.63e-21
  2.4370e+05   1.55e-21
  2.5282e+05   1.47e-21
  2.6229e+05   1.39e-21
  2.7211e+05   1.32e-21
  2.8229e+05   1.25e-21
  2.9286e+05   1.18e-21
  3.0382e+05   1.11e-21
  3.1519e+05   1.05e-21
  3.2699e+05   9.92e-22
  3.3923e+05   9.36e-22
  3.5193e+05   8.83e-22
  3.6511e+05   8.32e-22
  3.7877e+05   7.84e-22
  3.9295e+05   7.38e-22
  4.0766e+05   6.94e-22
  4.2292e+05   6.52e-22
  4.3875e+05   6.13e-22
  4.5518e+05   5.75e-22
  4.7222e+05   5.40e-22
  4.8989e+05   5.06e-22
  5.0823e+05   4.75e-22
  5.2726e+05   4.45e-22
  5.4699e+05   4.16e-22
  5.6747e+05   3.89e-22
  5.8871e+05   3.64e-22
  6.1075e+05   3.40e-22
  6.3361e+05   3.17e-22
  6.5733e+05   2.96e-22
  6.8194e+05   2.76e-22
  7.0746e+05   2.58e-22
  7.3395e+05   2.40e-22
  7.6142e+05   2.24e-22
  7.8992e+05   2.08e-22
  8.1949e+05   1.94e-22
  8.5017e+05   1.80e-22
  8.8199e+05   1.68e-22
  9.1501e+05   1.56e-22
  9.4926e+05   1.45e-22
  9.8479e+05   1.35e-22
  1.0217e+06   1.25e-22
  1.0599e+06   1.16e-22
  1.0996e+06   1.08e-22
  1.1407e+06   9.99e-23
  1.1834e+06   9.27e-23
  1.2277e+06   8.59e-23
  1.2737e+06   7.96e-23
  1.3214e+06   7.37e-23
  1.3708e+06   6.83e-23
  1.4222e+06   6.32e-23
  1.4754e+06   5.85e-23
  1.5306e+06   5.41e-23
  1.5879e+06   5.01e-23
  1.6474e+06   4.63e-23
  1.7090e+06   4.28e-23
  1.7730e+06   3.96e-23
  1.8394e+06   3.66e-23
  1.9082e+06   3.37e-23
  1.9797e+06   3.11e-23
  2.0538e+06   2.87e-23
  2.1306e+06   2.65e-23
  2.2104e+06   2.44e-23
  2.2931e+06   2.25e-23
  2.3790e+06   2.07e-23
  2.4680e+06   1.90e-23
  2.5604e+06   1.75e-23
  2.6563e+06   1.61e-23
  2.7557e+06   1.47e-23
  2.8589e+06   1.35e-23
  2.9659e+06   1.24e-23
  3.0769e+06   1.13e-23
  3.1921e+06   1.04e-23
  3.3116e+06   9.50e-24
  3.4355e+06   8.66e-24
  3.5641e+06   7.91e-24
  3.6976e+06   7.22e-24
  3.8360e+06   6.56e-24
  3.9796e+06   5.98e-24
  4.1285e+06   5.43e-24
  4.2831e+06   4.92e-24
  4.4434e+06   4.46e-24
  4.6097e+06   4.04e-24
  4.7823e+06   3.65e-24
  4.9613e+06   3.29e-24
  5.1470e+06   2.97e-24
  5.3397e+06   2.67e-24
  5.5396e+06   2.40e-24
  5.7470e+06   2.16e-24
  5.9621e+06   1.93e-24
  6.1853e+06   1.72e-24
  6.4168e+06   1.54e-24
  6.6570e+06   1.37e-24
  6.9062e+06   1.21e-24
  7.1647e+06   1.08e-24
  7.4329e+06   9.56e-25
  7.7112e+06   8.40e-25
  7.9998e+06   7.43e-25
  8.2993e+06   6.53e-25
  8.6100e+06   5.69e-25
  8.9323e+06   4.99e-25
  9.2666e+06   4.35e-25
  9.6135e+06   3.76e-25
  9.9734e+06   3.26e-25
  1.0347e+07   2.81e-25
  1.0734e+07   2.40e-25
  1.1136e+07   2.06e-25
  1.1553e+07   1.75e-25
  1.1985e+07   1.48e-25
  1.2434e+07   1.25e-25
  1.2899e+07   1.05e-25
  1.3382e+07   8.71e-26
  1.3883e+07   7.19e-26
  1.4403e+07   5.93e-26
  1.4942e+07   4.82e-26
  1.5501e+07   3.87e-26
  1.6081e+07   3.10e-26
  1.6683e+07   2.44e-26
  1.7308e+07   1.89e-26
  1.7956e+07   1.46e-26
  1.8628e+07   1.10e-26
  1.9325e+07   8.12e-27
  2.0049e+07   5.91e-27
  2.0799e+07   4.17e-27
  2.1578e+07   2.84e-27
  2.2386e+07   1.88e-27
  2.3224e+07   1.19e-27
  2.4093e+07   7.17e-28
  2.4995e+07   4.09e-28
  2.5930e+07   2.17e-28
  2.6901e+07   1.06e-28
  2.7908e+07   4.72e-29
  2.8953e+07   1.88e-29
  3.0037e+07   6.47e-30
  3.1161e+07   1.89e-30
  3.2327e+07   4.57e-31
  3.3537e+07   8.46e-32
  3.4793e+07   1.17e-32
  3.6095e+07   1.16e-33
  3.7446e+07   7.01e-35
  3.8848e+07   2.43e-36
  4.0302e+07   4.70e-38
  4.1811e+07   3.31e-40
  4.3376e+07   6.84e-43
  4.5000e+07   3.35e-46
