#  E [MeV]   Flux [# cm^{-2} s^{-1}  MeV^{-1}]
  3.0000e+04   5.46e-25
  3.1141e+04   5.24e-25
  3.2326e+04   5.03e-25
  3.3556e+04   4.82e-25
  3.4832e+04   4.63e-25
  3.6157e+04   4.44e-25
  3.7533e+04   4.25e-25
  3.8961e+04   4.08e-25
  4.0443e+04   3.91e-25
  4.1982e+04   3.75e-25
  4.3579e+04   3.60e-25
  4.5237e+04   3.45e-25
  4.6958e+04   3.30e-25
  4.8744e+04   3.17e-25
  5.0598e+04   3.04e-25
  5.2523e+04   2.91e-25
  5.4521e+04   2.79e-25
  5.6596e+04   2.67e-25
  5.8749e+04   2.56e-25
  6.0984e+04   2.45e-25
  6.3304e+04   2.35e-25
  6.5712e+04   2.25e-25
  6.8212e+04   2.15e-25
  7.0807e+04   2.06e-25
  7.3500e+04   1.97e-25
  7.6297e+04   1.89e-25
  7.9199e+04   1.81e-25
  8.2212e+04   1.73e-25
  8.5340e+04   1.66e-25
  8.8586e+04   1.58e-25
  9.1956e+04   1.51e-25
  9.5455e+04   1.45e-25
  9.9086e+04   1.38e-25
  1.0286e+05   1.32e-25
  1.0677e+05   1.27e-25
  1.1083e+05   1.21e-25
  1.1505e+05   1.16e-25
  1.1942e+05   1.10e-25
  1.2397e+05   1.05e-25
  1.2868e+05   1.01e-25
  1.3358e+05   9.61e-26
  1.3866e+05   9.17e-26
  1.4394e+05   8.75e-26
  1.4941e+05   8.35e-26
  1.5509e+05   7.97e-26
  1.6100e+05   7.60e-26
  1.6712e+05   7.24e-26
  1.7348e+05   6.90e-26
  1.8008e+05   6.57e-26
  1.8693e+05   6.26e-26
  1.9404e+05   5.96e-26
  2.0142e+05   5.67e-26
  2.0908e+05   5.40e-26
  2.1704e+05   5.13e-26
  2.2529e+05   4.88e-26
  2.3387e+05   4.64e-26
  2.4276e+05   4.41e-26
  2.5200e+05   4.19e-26
  2.6158e+05   3.98e-26
  2.7154e+05   3.77e-26
  2.8187e+05   3.58e-26
  2.9259e+05   3.40e-26
  3.0372e+05   3.22e-26
  3.1527e+05   3.06e-26
  3.2727e+05   2.89e-26
  3.3972e+05   2.74e-26
  3.5264e+05   2.59e-26
  3.6606e+05   2.45e-26
  3.7998e+05   2.32e-26
  3.9444e+05   2.19e-26
  4.0945e+05   2.07e-26
  4.2502e+05   1.95e-26
  4.4119e+05   1.84e-26
  4.5798e+05   1.74e-26
  4.7540e+05   1.64e-26
  4.9348e+05   1.55e-26
  5.1226e+05   1.46e-26
  5.3175e+05   1.37e-26
  5.5198e+05   1.29e-26
  5.7297e+05   1.21e-26
  5.9477e+05   1.14e-26
  6.1740e+05   1.07e-26
  6.4089e+05   1.01e-26
  6.6527e+05   9.46e-27
  6.9058e+05   8.88e-27
  7.1685e+05   8.33e-27
  7.4412e+05   7.81e-27
  7.7243e+05   7.32e-27
  8.0181e+05   6.86e-27
  8.3232e+05   6.42e-27
  8.6398e+05   6.01e-27
  8.9685e+05   5.62e-27
  9.3097e+05   5.26e-27
  9.6638e+05   4.92e-27
  1.0031e+06   4.60e-27
  1.0413e+06   4.29e-27
  1.0809e+06   4.01e-27
  1.1220e+06   3.74e-27
  1.1647e+06   3.49e-27
  1.2090e+06   3.26e-27
  1.2550e+06   3.04e-27
  1.3028e+06   2.83e-27
  1.3523e+06   2.63e-27
  1.4038e+06   2.45e-27
  1.4572e+06   2.28e-27
  1.5126e+06   2.12e-27
  1.5702e+06   1.97e-27
  1.6299e+06   1.83e-27
  1.6919e+06   1.70e-27
  1.7563e+06   1.58e-27
  1.8231e+06   1.46e-27
  1.8925e+06   1.36e-27
  1.9645e+06   1.26e-27
  2.0392e+06   1.16e-27
  2.1168e+06   1.08e-27
  2.1973e+06   9.97e-28
  2.2809e+06   9.23e-28
  2.3677e+06   8.53e-28
  2.4577e+06   7.87e-28
  2.5512e+06   7.27e-28
  2.6483e+06   6.70e-28
  2.7490e+06   6.17e-28
  2.8536e+06   5.69e-28
  2.9622e+06   5.24e-28
  3.0749e+06   4.81e-28
  3.1918e+06   4.42e-28
  3.3133e+06   4.07e-28
  3.4393e+06   3.73e-28
  3.5702e+06   3.42e-28
  3.7060e+06   3.13e-28
  3.8470e+06   2.87e-28
  3.9933e+06   2.62e-28
  4.1452e+06   2.40e-28
  4.3029e+06   2.19e-28
  4.4666e+06   2.00e-28
  4.6366e+06   1.82e-28
  4.8129e+06   1.66e-28
  4.9960e+06   1.51e-28
  5.1861e+06   1.37e-28
  5.3834e+06   1.25e-28
  5.5882e+06   1.13e-28
  5.8008e+06   1.02e-28
  6.0215e+06   9.27e-29
  6.2506e+06   8.36e-29
  6.4883e+06   7.57e-29
  6.7352e+06   6.83e-29
  6.9914e+06   6.14e-29
  7.2574e+06   5.54e-29
  7.5335e+06   4.98e-29
  7.8201e+06   4.46e-29
  8.1176e+06   4.01e-29
  8.4264e+06   3.59e-29
  8.7470e+06   3.20e-29
  9.0797e+06   2.87e-29
  9.4251e+06   2.56e-29
  9.7837e+06   2.27e-29
  1.0156e+07   2.02e-29
  1.0542e+07   1.80e-29
  1.0943e+07   1.59e-29
  1.1360e+07   1.41e-29
  1.1792e+07   1.25e-29
  1.2240e+07   1.10e-29
  1.2706e+07   9.65e-30
  1.3189e+07   8.50e-30
  1.3691e+07   7.44e-30
  1.4212e+07   6.50e-30
  1.4753e+07   5.70e-30
  1.5314e+07   4.96e-30
  1.5897e+07   4.30e-30
  1.6501e+07   3.74e-30
  1.7129e+07   3.22e-30
  1.7781e+07   2.77e-30
  1.8457e+07   2.38e-30
  1.9159e+07   2.03e-30
  1.9888e+07   1.72e-30
  2.0645e+07   1.46e-30
  2.1430e+07   1.22e-30
  2.2245e+07   1.01e-30
  2.3092e+07   8.36e-31
  2.3970e+07   6.80e-31
  2.4882e+07   5.42e-31
  2.5829e+07   4.29e-31
  2.6811e+07   3.31e-31
  2.7831e+07   2.47e-31
  2.8890e+07   1.80e-31
  2.9989e+07   1.26e-31
  3.1130e+07   8.34e-32
  3.2314e+07   5.29e-32
  3.3544e+07   3.11e-32
  3.4820e+07   1.66e-32
  3.6144e+07   8.08e-33
  3.7519e+07   3.41e-33
  3.8947e+07   1.19e-33
  4.0428e+07   3.52e-34
  4.1966e+07   7.88e-35
  4.3563e+07   1.20e-35
  4.5220e+07   1.32e-36
  4.6941e+07   8.13e-38
  4.8726e+07   2.13e-39
  5.0580e+07   2.05e-41
