#  E [MeV]   Flux [# cm^{-2} s^{-1}  MeV^{-1}]
  3.0000e+04   5.74e-20
  3.1123e+04   5.49e-20
  3.2288e+04   5.25e-20
  3.3497e+04   5.02e-20
  3.4751e+04   4.80e-20
  3.6051e+04   4.59e-20
  3.7401e+04   4.39e-20
  3.8801e+04   4.19e-20
  4.0253e+04   4.01e-20
  4.1760e+04   3.83e-20
  4.3324e+04   3.66e-20
  4.4945e+04   3.49e-20
  4.6628e+04   3.33e-20
  4.8373e+04   3.18e-20
  5.0184e+04   3.04e-20
  5.2063e+04   2.90e-20
  5.4011e+04   2.77e-20
  5.6033e+04   2.64e-20
  5.8131e+04   2.52e-20
  6.0307e+04   2.40e-20
  6.2564e+04   2.29e-20
  6.4906e+04   2.18e-20
  6.7336e+04   2.08e-20
  6.9857e+04   1.98e-20
  7.2472e+04   1.89e-20
  7.5184e+04   1.80e-20
  7.7999e+04   1.72e-20
  8.0919e+04   1.63e-20
  8.3948e+04   1.56e-20
  8.7090e+04   1.48e-20
  9.0350e+04   1.41e-20
  9.3732e+04   1.34e-20
  9.7241e+04   1.28e-20
  1.0088e+05   1.21e-20
  1.0466e+05   1.15e-20
  1.0858e+05   1.10e-20
  1.1264e+05   1.04e-20
  1.1686e+05   9.91e-21
  1.2123e+05   9.41e-21
  1.2577e+05   8.94e-21
  1.3048e+05   8.49e-21
  1.3536e+05   8.06e-21
  1.4043e+05   7.65e-21
  1.4568e+05   7.26e-21
  1.5114e+05   6.88e-21
  1.5680e+05   6.53e-21
  1.6266e+05   6.19e-21
  1.6875e+05   5.86e-21
  1.7507e+05   5.55e-21
  1.8162e+05   5.26e-21
  1.8842e+05   4.98e-21
  1.9548e+05   4.71e-21
  2.0279e+05   4.45e-21
  2.1039e+05   4.21e-21
  2.1826e+05   3.98e-21
  2.2643e+05   3.76e-21
  2.3491e+05   3.55e-21
  2.4370e+05   3.35e-21
  2.5282e+05   3.16e-21
  2.6229e+05   2.98e-21
  2.7211e+05   2.81e-21
  2.8229e+05   2.64e-21
  2.9286e+05   2.49e-21
  3.0382e+05   2.34e-21
  3.1519e+05   2.20e-21
  3.2699e+05   2.06e-21
  3.3923e+05   1.94e-21
  3.5193e+05   1.82e-21
  3.6511e+05   1.70e-21
  3.7877e+05   1.60e-21
  3.9295e+05   1.49e-21
  4.0766e+05   1.40e-21
  4.2292e+05   1.31e-21
  4.3875e+05   1.22e-21
  4.5518e+05   1.14e-21
  4.7222e+05   1.06e-21
  4.8989e+05   9.93e-22
  5.0823e+05   9.26e-22
  5.2726e+05   8.62e-22
  5.4699e+05   8.02e-22
  5.6747e+05   7.47e-22
  5.8871e+05   6.94e-22
  6.1075e+05   6.45e-22
  6.3361e+05   5.99e-22
  6.5733e+05   5.56e-22
  6.8194e+05   5.15e-22
  7.0746e+05   4.78e-22
  7.3395e+05   4.43e-22
  7.6142e+05   4.10e-22
  7.8992e+05   3.79e-22
  8.1949e+05   3.51e-22
  8.5017e+05   3.25e-22
  8.8199e+05   3.00e-22
  9.1501e+05   2.77e-22
  9.4926e+05   2.56e-22
  9.8479e+05   2.36e-22
  1.0217e+06   2.18e-22
  1.0599e+06   2.01e-22
  1.0996e+06   1.85e-22
  1.1407e+06   1.71e-22
  1.1834e+06   1.57e-22
  1.2277e+06   1.44e-22
  1.2737e+06   1.33e-22
  1.3214e+06   1.22e-22
  1.3708e+06   1.12e-22
  1.4222e+06   1.03e-22
  1.4754e+06   9.45e-23
  1.5306e+06   8.66e-23
  1.5879e+06   7.94e-23
  1.6474e+06   7.28e-23
  1.7090e+06   6.66e-23
  1.7730e+06   6.10e-23
  1.8394e+06   5.58e-23
  1.9082e+06   5.09e-23
  1.9797e+06   4.65e-23
  2.0538e+06   4.25e-23
  2.1306e+06   3.87e-23
  2.2104e+06   3.52e-23
  2.2931e+06   3.21e-23
  2.3790e+06   2.91e-23
  2.4680e+06   2.64e-23
  2.5604e+06   2.40e-23
  2.6563e+06   2.17e-23
  2.7557e+06   1.97e-23
  2.8589e+06   1.78e-23
  2.9659e+06   1.61e-23
  3.0769e+06   1.45e-23
  3.1921e+06   1.31e-23
  3.3116e+06   1.17e-23
  3.4355e+06   1.05e-23
  3.5641e+06   9.47e-24
  3.6976e+06   8.49e-24
  3.8360e+06   7.57e-24
  3.9796e+06   6.78e-24
  4.1285e+06   6.05e-24
  4.2831e+06   5.37e-24
  4.4434e+06   4.78e-24
  4.6097e+06   4.24e-24
  4.7823e+06   3.74e-24
  4.9613e+06   3.31e-24
  5.1470e+06   2.93e-24
  5.3397e+06   2.57e-24
  5.5396e+06   2.25e-24
  5.7470e+06   1.98e-24
  5.9621e+06   1.73e-24
  6.1853e+06   1.50e-24
  6.4168e+06   1.31e-24
  6.6570e+06   1.14e-24
  6.9062e+06   9.81e-25
  7.1647e+06   8.52e-25
  7.4329e+06   7.34e-25
  7.7112e+06   6.26e-25
  7.9998e+06   5.40e-25
  8.2993e+06   4.61e-25
  8.6100e+06   3.89e-25
  8.9323e+06   3.32e-25
  9.2666e+06   2.81e-25
  9.6135e+06   2.34e-25
  9.9734e+06   1.97e-25
  1.0347e+07   1.65e-25
  1.0734e+07   1.36e-25
  1.1136e+07   1.13e-25
  1.1553e+07   9.32e-26
  1.1985e+07   7.59e-26
  1.2434e+07   6.17e-26
  1.2899e+07   5.01e-26
  1.3382e+07   4.01e-26
  1.3883e+07   3.18e-26
  1.4403e+07   2.53e-26
  1.4942e+07   1.97e-26
  1.5501e+07   1.52e-26
  1.6081e+07   1.17e-26
  1.6683e+07   8.83e-27
  1.7308e+07   6.52e-27
  1.7956e+07   4.82e-27
  1.8628e+07   3.46e-27
  1.9325e+07   2.41e-27
  2.0049e+07   1.67e-27
  2.0799e+07   1.11e-27
  2.1578e+07   7.10e-28
  2.2386e+07   4.41e-28
  2.3224e+07   2.60e-28
  2.4093e+07   1.44e-28
  2.4995e+07   7.54e-29
  2.5930e+07   3.64e-29
  2.6901e+07   1.60e-29
  2.7908e+07   6.29e-30
  2.8953e+07   2.18e-30
  3.0037e+07   6.44e-31
  3.1161e+07   1.58e-31
  3.2327e+07   3.09e-32
  3.3537e+07   4.58e-33
  3.4793e+07   4.83e-34
  3.6095e+07   3.36e-35
  3.7446e+07   1.40e-36
  3.8848e+07   3.07e-38
  4.0302e+07   3.05e-40
  4.1811e+07   1.11e-42
  4.3376e+07   1.13e-45
  4.5000e+07   2.34e-49
