#  E [MeV]   Flux [# cm^{-2} s^{-1}  MeV^{-1}]
  3.0000e+04   4.69e-20
  3.0854e+04   4.54e-20
  3.1733e+04   4.39e-20
  3.2636e+04   4.24e-20
  3.3566e+04   4.10e-20
  3.4521e+04   3.97e-20
  3.5504e+04   3.84e-20
  3.6515e+04   3.71e-20
  3.7555e+04   3.58e-20
  3.8625e+04   3.46e-20
  3.9724e+04   3.34e-20
  4.0855e+04   3.23e-20
  4.2019e+04   3.12e-20
  4.3215e+04   3.01e-20
  4.4446e+04   2.91e-20
  4.5711e+04   2.80e-20
  4.7013e+04   2.70e-20
  4.8352e+04   2.61e-20
  4.9728e+04   2.51e-20
  5.1144e+04   2.42e-20
  5.2601e+04   2.33e-20
  5.4099e+04   2.25e-20
  5.5639e+04   2.17e-20
  5.7223e+04   2.09e-20
  5.8853e+04   2.01e-20
  6.0528e+04   1.93e-20
  6.2252e+04   1.86e-20
  6.4025e+04   1.79e-20
  6.5848e+04   1.72e-20
  6.7723e+04   1.65e-20
  6.9651e+04   1.59e-20
  7.1634e+04   1.53e-20
  7.3674e+04   1.47e-20
  7.5772e+04   1.41e-20
  7.7929e+04   1.35e-20
  8.0148e+04   1.30e-20
  8.2431e+04   1.25e-20
  8.4778e+04   1.20e-20
  8.7192e+04   1.15e-20
  8.9674e+04   1.10e-20
  9.2228e+04   1.05e-20
  9.4854e+04   1.01e-20
  9.7555e+04   9.68e-21
  1.0033e+05   9.27e-21
  1.0319e+05   8.87e-21
  1.0613e+05   8.49e-21
  1.0915e+05   8.12e-21
  1.1226e+05   7.77e-21
  1.1545e+05   7.43e-21
  1.1874e+05   7.10e-21
  1.2212e+05   6.79e-21
  1.2560e+05   6.49e-21
  1.2918e+05   6.19e-21
  1.3286e+05   5.92e-21
  1.3664e+05   5.65e-21
  1.4053e+05   5.39e-21
  1.4453e+05   5.14e-21
  1.4865e+05   4.91e-21
  1.5288e+05   4.68e-21
  1.5723e+05   4.46e-21
  1.6171e+05   4.25e-21
  1.6631e+05   4.05e-21
  1.7105e+05   3.86e-21
  1.7592e+05   3.67e-21
  1.8093e+05   3.49e-21
  1.8608e+05   3.32e-21
  1.9138e+05   3.16e-21
  1.9683e+05   3.00e-21
  2.0243e+05   2.85e-21
  2.0820e+05   2.70e-21
  2.1413e+05   2.57e-21
  2.2022e+05   2.43e-21
  2.2649e+05   2.31e-21
  2.3294e+05   2.19e-21
  2.3958e+05   2.07e-21
  2.4640e+05   1.96e-21
  2.5341e+05   1.86e-21
  2.6063e+05   1.76e-21
  2.6805e+05   1.66e-21
  2.7568e+05   1.57e-21
  2.8353e+05   1.48e-21
  2.9161e+05   1.40e-21
  2.9991e+05   1.32e-21
  3.0845e+05   1.25e-21
  3.1723e+05   1.18e-21
  3.2627e+05   1.11e-21
  3.3556e+05   1.04e-21
  3.4511e+05   9.83e-22
  3.5494e+05   9.25e-22
  3.6504e+05   8.70e-22
  3.7544e+05   8.18e-22
  3.8613e+05   7.68e-22
  3.9712e+05   7.21e-22
  4.0843e+05   6.76e-22
  4.2006e+05   6.34e-22
  4.3202e+05   5.93e-22
  4.4432e+05   5.56e-22
  4.5698e+05   5.21e-22
  4.6999e+05   4.87e-22
  4.8337e+05   4.54e-22
  4.9713e+05   4.25e-22
  5.1129e+05   3.97e-22
  5.2585e+05   3.70e-22
  5.4082e+05   3.45e-22
  5.5622e+05   3.22e-22
  5.7206e+05   3.00e-22
  5.8835e+05   2.79e-22
  6.0510e+05   2.59e-22
  6.2233e+05   2.41e-22
  6.4005e+05   2.24e-22
  6.5828e+05   2.08e-22
  6.7702e+05   1.93e-22
  6.9630e+05   1.79e-22
  7.1613e+05   1.66e-22
  7.3652e+05   1.54e-22
  7.5749e+05   1.42e-22
  7.7906e+05   1.32e-22
  8.0124e+05   1.22e-22
  8.2406e+05   1.13e-22
  8.4752e+05   1.04e-22
  8.7165e+05   9.60e-23
  8.9647e+05   8.88e-23
  9.2200e+05   8.19e-23
  9.4825e+05   7.54e-23
  9.7526e+05   6.94e-23
  1.0030e+06   6.40e-23
  1.0316e+06   5.89e-23
  1.0610e+06   5.41e-23
  1.0912e+06   4.97e-23
  1.1222e+06   4.57e-23
  1.1542e+06   4.20e-23
  1.1871e+06   3.85e-23
  1.2209e+06   3.53e-23
  1.2556e+06   3.24e-23
  1.2914e+06   2.97e-23
  1.3281e+06   2.72e-23
  1.3660e+06   2.48e-23
  1.4049e+06   2.27e-23
  1.4449e+06   2.08e-23
  1.4860e+06   1.90e-23
  1.5283e+06   1.73e-23
  1.5718e+06   1.58e-23
  1.6166e+06   1.44e-23
  1.6626e+06   1.31e-23
  1.7100e+06   1.18e-23
  1.7587e+06   1.08e-23
  1.8087e+06   9.82e-24
  1.8602e+06   8.90e-24
  1.9132e+06   8.03e-24
  1.9677e+06   7.29e-24
  2.0237e+06   6.61e-24
  2.0813e+06   5.97e-24
  2.1406e+06   5.36e-24
  2.2016e+06   4.84e-24
  2.2642e+06   4.38e-24
  2.3287e+06   3.94e-24
  2.3950e+06   3.52e-24
  2.4632e+06   3.16e-24
  2.5334e+06   2.85e-24
  2.6055e+06   2.55e-24
  2.6797e+06   2.27e-24
  2.7560e+06   2.02e-24
  2.8345e+06   1.81e-24
  2.9152e+06   1.62e-24
  2.9982e+06   1.43e-24
  3.0836e+06   1.26e-24
  3.1714e+06   1.13e-24
  3.2617e+06   9.99e-25
  3.3545e+06   8.78e-25
  3.4501e+06   7.69e-25
  3.5483e+06   6.84e-25
  3.6493e+06   6.03e-25
  3.7532e+06   5.26e-25
  3.8601e+06   4.57e-25
  3.9700e+06   4.04e-25
  4.0831e+06   3.54e-25
  4.1993e+06   3.07e-25
  4.3189e+06   2.63e-25
  4.4419e+06   2.32e-25
  4.5684e+06   2.02e-25
  4.6985e+06   1.74e-25
  4.8322e+06   1.48e-25
  4.9698e+06   1.29e-25
  5.1114e+06   1.12e-25
  5.2569e+06   9.54e-26
  5.4066e+06   8.02e-26
  5.5605e+06   6.93e-26
  5.7189e+06   5.96e-26
  5.8817e+06   5.06e-26
  6.0492e+06   4.22e-26
  6.2214e+06   3.59e-26
  6.3986e+06   3.05e-26
  6.5808e+06   2.55e-26
  6.7682e+06   2.09e-26
  6.9609e+06   1.73e-26
  7.1591e+06   1.43e-26
  7.3630e+06   1.15e-26
  7.5726e+06   8.98e-27
  7.7882e+06   7.09e-27
  8.0100e+06   5.69e-27
