#  E [MeV]   Flux [# cm^{-2} s^{-1}  MeV^{-1}]
  3.0000e+04   7.79e-26
  3.1232e+04   7.45e-26
  3.2514e+04   7.13e-26
  3.3849e+04   6.82e-26
  3.5238e+04   6.52e-26
  3.6685e+04   6.23e-26
  3.8191e+04   5.96e-26
  3.9759e+04   5.70e-26
  4.1391e+04   5.45e-26
  4.3090e+04   5.21e-26
  4.4859e+04   4.98e-26
  4.6701e+04   4.76e-26
  4.8618e+04   4.55e-26
  5.0614e+04   4.34e-26
  5.2692e+04   4.15e-26
  5.4855e+04   3.97e-26
  5.7107e+04   3.79e-26
  5.9451e+04   3.62e-26
  6.1892e+04   3.46e-26
  6.4433e+04   3.30e-26
  6.7078e+04   3.15e-26
  6.9832e+04   3.01e-26
  7.2699e+04   2.88e-26
  7.5683e+04   2.75e-26
  7.8790e+04   2.62e-26
  8.2025e+04   2.50e-26
  8.5392e+04   2.39e-26
  8.8898e+04   2.28e-26
  9.2547e+04   2.17e-26
  9.6347e+04   2.07e-26
  1.0030e+05   1.98e-26
  1.0442e+05   1.89e-26
  1.0871e+05   1.80e-26
  1.1317e+05   1.72e-26
  1.1782e+05   1.64e-26
  1.2265e+05   1.56e-26
  1.2769e+05   1.49e-26
  1.3293e+05   1.41e-26
  1.3839e+05   1.35e-26
  1.4407e+05   1.28e-26
  1.4998e+05   1.22e-26
  1.5614e+05   1.16e-26
  1.6255e+05   1.11e-26
  1.6922e+05   1.05e-26
  1.7617e+05   1.00e-26
  1.8340e+05   9.51e-27
  1.9093e+05   9.03e-27
  1.9877e+05   8.58e-27
  2.0693e+05   8.14e-27
  2.1543e+05   7.73e-27
  2.2427e+05   7.33e-27
  2.3348e+05   6.95e-27
  2.4306e+05   6.59e-27
  2.5304e+05   6.24e-27
  2.6343e+05   5.91e-27
  2.7424e+05   5.59e-27
  2.8550e+05   5.29e-27
  2.9722e+05   5.00e-27
  3.0942e+05   4.72e-27
  3.2213e+05   4.45e-27
  3.3535e+05   4.20e-27
  3.4912e+05   3.96e-27
  3.6345e+05   3.73e-27
  3.7837e+05   3.51e-27
  3.9390e+05   3.30e-27
  4.1008e+05   3.11e-27
  4.2691e+05   2.92e-27
  4.4444e+05   2.74e-27
  4.6268e+05   2.57e-27
  4.8168e+05   2.41e-27
  5.0145e+05   2.26e-27
  5.2204e+05   2.11e-27
  5.4347e+05   1.98e-27
  5.6578e+05   1.85e-27
  5.8901e+05   1.72e-27
  6.1319e+05   1.61e-27
  6.3836e+05   1.50e-27
  6.6457e+05   1.40e-27
  6.9185e+05   1.30e-27
  7.2025e+05   1.21e-27
  7.4982e+05   1.13e-27
  7.8061e+05   1.05e-27
  8.1265e+05   9.78e-28
  8.4601e+05   9.09e-28
  8.8075e+05   8.45e-28
  9.1690e+05   7.85e-28
  9.5455e+05   7.29e-28
  9.9373e+05   6.77e-28
  1.0345e+06   6.28e-28
  1.0770e+06   5.83e-28
  1.1212e+06   5.41e-28
  1.1672e+06   5.02e-28
  1.2152e+06   4.65e-28
  1.2650e+06   4.31e-28
  1.3170e+06   4.00e-28
  1.3711e+06   3.70e-28
  1.4273e+06   3.43e-28
  1.4859e+06   3.18e-28
  1.5469e+06   2.95e-28
  1.6104e+06   2.73e-28
  1.6766e+06   2.53e-28
  1.7454e+06   2.34e-28
  1.8170e+06   2.17e-28
  1.8916e+06   2.00e-28
  1.9693e+06   1.85e-28
  2.0501e+06   1.71e-28
  2.1343e+06   1.58e-28
  2.2219e+06   1.46e-28
  2.3131e+06   1.35e-28
  2.4081e+06   1.24e-28
  2.5070e+06   1.15e-28
  2.6099e+06   1.06e-28
  2.7170e+06   9.74e-29
  2.8286e+06   8.96e-29
  2.9447e+06   8.24e-29
  3.0656e+06   7.56e-29
  3.1914e+06   6.95e-29
  3.3225e+06   6.37e-29
  3.4589e+06   5.83e-29
  3.6008e+06   5.34e-29
  3.7487e+06   4.88e-29
  3.9026e+06   4.45e-29
  4.0628e+06   4.06e-29
  4.2296e+06   3.69e-29
  4.4032e+06   3.35e-29
  4.5840e+06   3.04e-29
  4.7722e+06   2.75e-29
  4.9681e+06   2.49e-29
  5.1720e+06   2.25e-29
  5.3844e+06   2.02e-29
  5.6054e+06   1.82e-29
  5.8355e+06   1.63e-29
  6.0751e+06   1.45e-29
  6.3245e+06   1.30e-29
  6.5841e+06   1.16e-29
  6.8544e+06   1.02e-29
  7.1358e+06   9.06e-30
  7.4288e+06   7.98e-30
  7.7338e+06   7.00e-30
  8.0513e+06   6.13e-30
  8.3818e+06   5.33e-30
  8.7259e+06   4.62e-30
  9.0841e+06   3.99e-30
  9.4571e+06   3.42e-30
  9.8453e+06   2.91e-30
  1.0249e+07   2.47e-30
  1.0670e+07   2.08e-30
  1.1108e+07   1.73e-30
  1.1564e+07   1.44e-30
  1.2039e+07   1.18e-30
  1.2533e+07   9.58e-31
  1.3048e+07   7.70e-31
  1.3584e+07   6.09e-31
  1.4141e+07   4.78e-31
  1.4722e+07   3.68e-31
  1.5326e+07   2.77e-31
  1.5955e+07   2.07e-31
  1.6610e+07   1.50e-31
  1.7292e+07   1.06e-31
  1.8002e+07   7.30e-32
  1.8741e+07   4.85e-32
  1.9511e+07   3.10e-32
  2.0312e+07   1.91e-32
  2.1145e+07   1.11e-32
  2.2013e+07   6.09e-33
  2.2917e+07   3.14e-33
  2.3858e+07   1.48e-33
  2.4837e+07   6.39e-34
  2.5857e+07   2.47e-34
  2.6919e+07   8.28e-35
  2.8024e+07   2.39e-35
  2.9174e+07   5.66e-36
  3.0372e+07   1.05e-36
  3.1619e+07   1.49e-37
  3.2917e+07   1.47e-38
  3.4268e+07   9.27e-40
  3.5675e+07   3.47e-41
  3.7140e+07   6.46e-43
  3.8664e+07   5.02e-45
  4.0252e+07   1.32e-47
  4.1904e+07   8.18e-51
  4.3624e+07   7.95e-55
  4.5415e+07   6.93e-60
  4.7280e+07   2.37e-66
  4.9221e+07   3.86e-72
  5.1241e+07   3.26e-72
  5.3345e+07   2.69e-72
  5.5535e+07   2.24e-72
  5.7815e+07   1.88e-72
  6.0188e+07   1.54e-72
  6.2659e+07   1.28e-72
  6.5232e+07   1.06e-72
  6.7910e+07   8.53e-73
  7.0698e+07   7.05e-73
  7.3600e+07   5.76e-73
  7.6621e+07   4.56e-73
  7.9767e+07   3.67e-73
  8.3042e+07   2.84e-73
  8.6451e+07   2.09e-73
  9.0000e+07   1.54e-73
