#  E [GeV]   # per interaction  [GeV^{-1}]
  3.0000e+01   2.20e-02
  3.1033e+01   2.12e-02
  3.2102e+01   2.04e-02
  3.3207e+01   1.96e-02
  3.4350e+01   1.89e-02
  3.5533e+01   1.82e-02
  3.6757e+01   1.75e-02
  3.8022e+01   1.68e-02
  3.9332e+01   1.61e-02
  4.0686e+01   1.55e-02
  4.2087e+01   1.49e-02
  4.3536e+01   1.43e-02
  4.5035e+01   1.37e-02
  4.6586e+01   1.32e-02
  4.8190e+01   1.26e-02
  4.9850e+01   1.21e-02
  5.1566e+01   1.16e-02
  5.3342e+01   1.12e-02
  5.5178e+01   1.07e-02
  5.7078e+01   1.03e-02
  5.9044e+01   9.83e-03
  6.1077e+01   9.42e-03
  6.3180e+01   9.02e-03
  6.5356e+01   8.64e-03
  6.7606e+01   8.28e-03
  6.9934e+01   7.92e-03
  7.2342e+01   7.58e-03
  7.4833e+01   7.26e-03
  7.7410e+01   6.94e-03
  8.0075e+01   6.64e-03
  8.2833e+01   6.35e-03
  8.5685e+01   6.07e-03
  8.8635e+01   5.80e-03
  9.1687e+01   5.54e-03
  9.4844e+01   5.29e-03
  9.8110e+01   5.05e-03
  1.0149e+02   4.82e-03
  1.0498e+02   4.60e-03
  1.0860e+02   4.39e-03
  1.1234e+02   4.19e-03
  1.1621e+02   3.99e-03
  1.2021e+02   3.81e-03
  1.2435e+02   3.63e-03
  1.2863e+02   3.46e-03
  1.3306e+02   3.29e-03
  1.3764e+02   3.14e-03
  1.4238e+02   2.99e-03
  1.4728e+02   2.84e-03
  1.5235e+02   2.70e-03
  1.5760e+02   2.57e-03
  1.6302e+02   2.45e-03
  1.6864e+02   2.32e-03
  1.7445e+02   2.21e-03
  1.8045e+02   2.10e-03
  1.8667e+02   1.99e-03
  1.9309e+02   1.89e-03
  1.9974e+02   1.79e-03
  2.0662e+02   1.70e-03
  2.1373e+02   1.61e-03
  2.2109e+02   1.53e-03
  2.2871e+02   1.45e-03
  2.3658e+02   1.37e-03
  2.4473e+02   1.30e-03
  2.5316e+02   1.23e-03
  2.6187e+02   1.16e-03
  2.7089e+02   1.10e-03
  2.8022e+02   1.04e-03
  2.8987e+02   9.82e-04
  2.9985e+02   9.27e-04
  3.1017e+02   8.75e-04
  3.2085e+02   8.26e-04
  3.3190e+02   7.78e-04
  3.4333e+02   7.34e-04
  3.5515e+02   6.91e-04
  3.6738e+02   6.51e-04
  3.8003e+02   6.13e-04
  3.9312e+02   5.77e-04
  4.0665e+02   5.42e-04
  4.2066e+02   5.10e-04
  4.3514e+02   4.79e-04
  4.5013e+02   4.50e-04
  4.6562e+02   4.22e-04
  4.8166e+02   3.96e-04
  4.9824e+02   3.72e-04
  5.1540e+02   3.49e-04
  5.3315e+02   3.27e-04
  5.5150e+02   3.07e-04
  5.7050e+02   2.87e-04
  5.9014e+02   2.69e-04
  6.1046e+02   2.52e-04
  6.3148e+02   2.36e-04
  6.5322e+02   2.21e-04
  6.7572e+02   2.07e-04
  6.9898e+02   1.94e-04
  7.2305e+02   1.82e-04
  7.4795e+02   1.70e-04
  7.7371e+02   1.59e-04
  8.0035e+02   1.49e-04
  8.2791e+02   1.40e-04
  8.5641e+02   1.31e-04
  8.8590e+02   1.23e-04
  9.1641e+02   1.15e-04
  9.4796e+02   1.08e-04
  9.8061e+02   1.01e-04
  1.0144e+03   9.47e-05
  1.0493e+03   8.89e-05
  1.0854e+03   8.35e-05
  1.1228e+03   7.84e-05
  1.1615e+03   7.37e-05
  1.2015e+03   6.93e-05
  1.2428e+03   6.52e-05
  1.2856e+03   6.14e-05
  1.3299e+03   5.78e-05
  1.3757e+03   5.44e-05
  1.4231e+03   5.13e-05
  1.4721e+03   4.84e-05
  1.5228e+03   4.56e-05
  1.5752e+03   4.31e-05
  1.6294e+03   4.07e-05
  1.6855e+03   3.84e-05
  1.7436e+03   3.64e-05
  1.8036e+03   3.44e-05
  1.8657e+03   3.26e-05
  1.9300e+03   3.08e-05
  1.9964e+03   2.92e-05
  2.0652e+03   2.77e-05
  2.1363e+03   2.62e-05
  2.2098e+03   2.49e-05
  2.2859e+03   2.36e-05
  2.3646e+03   2.24e-05
  2.4461e+03   2.12e-05
  2.5303e+03   2.02e-05
  2.6174e+03   1.91e-05
  2.7075e+03   1.82e-05
  2.8008e+03   1.72e-05
  2.8972e+03   1.64e-05
  2.9970e+03   1.55e-05
  3.1002e+03   1.47e-05
  3.2069e+03   1.40e-05
  3.3173e+03   1.33e-05
  3.4316e+03   1.26e-05
  3.5497e+03   1.19e-05
  3.6720e+03   1.13e-05
  3.7984e+03   1.07e-05
  3.9292e+03   1.01e-05
  4.0645e+03   9.60e-06
  4.2044e+03   9.08e-06
  4.3492e+03   8.58e-06
  4.4990e+03   8.10e-06
  4.6539e+03   7.64e-06
  4.8141e+03   7.20e-06
  4.9799e+03   6.78e-06
  5.1514e+03   6.37e-06
  5.3288e+03   5.98e-06
  5.5123e+03   5.60e-06
  5.7021e+03   5.24e-06
  5.8984e+03   4.90e-06
  6.1015e+03   4.57e-06
  6.3116e+03   4.26e-06
  6.5289e+03   3.96e-06
  6.7538e+03   3.67e-06
  6.9863e+03   3.40e-06
  7.2269e+03   3.13e-06
  7.4757e+03   2.88e-06
  7.7331e+03   2.65e-06
  7.9994e+03   2.42e-06
  8.2749e+03   2.21e-06
  8.5598e+03   2.01e-06
  8.8546e+03   1.82e-06
  9.1594e+03   1.64e-06
  9.4748e+03   1.47e-06
  9.8011e+03   1.31e-06
  1.0139e+04   1.16e-06
  1.0488e+04   1.02e-06
  1.0849e+04   8.98e-07
  1.1222e+04   7.81e-07
  1.1609e+04   6.74e-07
  1.2009e+04   5.77e-07
  1.2422e+04   4.90e-07
  1.2850e+04   4.11e-07
  1.3292e+04   3.42e-07
  1.3750e+04   2.80e-07
  1.4223e+04   2.27e-07
  1.4713e+04   1.81e-07
  1.5220e+04   1.42e-07
  1.5744e+04   1.10e-07
  1.6286e+04   8.28e-08
  1.6847e+04   6.11e-08
  1.7427e+04   4.40e-08
  1.8027e+04   3.08e-08
  1.8648e+04   2.09e-08
  1.9290e+04   1.36e-08
  1.9954e+04   8.57e-09
  2.0641e+04   5.14e-09
  2.1352e+04   2.92e-09
  2.2087e+04   1.56e-09
  2.2848e+04   7.82e-10
  2.3634e+04   3.62e-10
  2.4448e+04   1.54e-10
  2.5290e+04   5.89e-11
