#  E [MeV]   Flux [# cm^{-2} s^{-1}  MeV^{-1}]
  3.0000e+04   6.90e-25
  3.1141e+04   6.62e-25
  3.2326e+04   6.36e-25
  3.3556e+04   6.10e-25
  3.4832e+04   5.85e-25
  3.6157e+04   5.61e-25
  3.7533e+04   5.38e-25
  3.8961e+04   5.16e-25
  4.0443e+04   4.95e-25
  4.1982e+04   4.74e-25
  4.3579e+04   4.55e-25
  4.5237e+04   4.36e-25
  4.6958e+04   4.18e-25
  4.8744e+04   4.00e-25
  5.0598e+04   3.84e-25
  5.2523e+04   3.68e-25
  5.4521e+04   3.52e-25
  5.6596e+04   3.37e-25
  5.8749e+04   3.23e-25
  6.0984e+04   3.10e-25
  6.3304e+04   2.97e-25
  6.5712e+04   2.84e-25
  6.8212e+04   2.72e-25
  7.0807e+04   2.60e-25
  7.3500e+04   2.49e-25
  7.6297e+04   2.38e-25
  7.9199e+04   2.28e-25
  8.2212e+04   2.18e-25
  8.5340e+04   2.09e-25
  8.8586e+04   2.00e-25
  9.1956e+04   1.91e-25
  9.5455e+04   1.83e-25
  9.9086e+04   1.75e-25
  1.0286e+05   1.67e-25
  1.0677e+05   1.59e-25
  1.1083e+05   1.52e-25
  1.1505e+05   1.45e-25
  1.1942e+05   1.39e-25
  1.2397e+05   1.33e-25
  1.2868e+05   1.27e-25
  1.3358e+05   1.21e-25
  1.3866e+05   1.15e-25
  1.4394e+05   1.10e-25
  1.4941e+05   1.05e-25
  1.5509e+05   1.00e-25
  1.6100e+05   9.53e-26
  1.6712e+05   9.07e-26
  1.7348e+05   8.64e-26
  1.8008e+05   8.23e-26
  1.8693e+05   7.83e-26
  1.9404e+05   7.45e-26
  2.0142e+05   7.08e-26
  2.0908e+05   6.73e-26
  2.1704e+05   6.39e-26
  2.2529e+05   6.07e-26
  2.3387e+05   5.77e-26
  2.4276e+05   5.47e-26
  2.5200e+05   5.19e-26
  2.6158e+05   4.92e-26
  2.7154e+05   4.67e-26
  2.8187e+05   4.42e-26
  2.9259e+05   4.19e-26
  3.0372e+05   3.97e-26
  3.1527e+05   3.75e-26
  3.2727e+05   3.55e-26
  3.3972e+05   3.35e-26
  3.5264e+05   3.16e-26
  3.6606e+05   2.98e-26
  3.7998e+05   2.82e-26
  3.9444e+05   2.65e-26
  4.0945e+05   2.50e-26
  4.2502e+05   2.35e-26
  4.4119e+05   2.22e-26
  4.5798e+05   2.08e-26
  4.7540e+05   1.96e-26
  4.9348e+05   1.84e-26
  5.1226e+05   1.73e-26
  5.3175e+05   1.62e-26
  5.5198e+05   1.52e-26
  5.7297e+05   1.43e-26
  5.9477e+05   1.34e-26
  6.1740e+05   1.25e-26
  6.4089e+05   1.17e-26
  6.6527e+05   1.09e-26
  6.9058e+05   1.02e-26
  7.1685e+05   9.56e-27
  7.4412e+05   8.93e-27
  7.7243e+05   8.34e-27
  8.0181e+05   7.78e-27
  8.3232e+05   7.26e-27
  8.6398e+05   6.77e-27
  8.9685e+05   6.31e-27
  9.3097e+05   5.88e-27
  9.6638e+05   5.47e-27
  1.0031e+06   5.10e-27
  1.0413e+06   4.74e-27
  1.0809e+06   4.41e-27
  1.1220e+06   4.10e-27
  1.1647e+06   3.82e-27
  1.2090e+06   3.55e-27
  1.2550e+06   3.29e-27
  1.3028e+06   3.06e-27
  1.3523e+06   2.84e-27
  1.4038e+06   2.63e-27
  1.4572e+06   2.44e-27
  1.5126e+06   2.27e-27
  1.5702e+06   2.10e-27
  1.6299e+06   1.95e-27
  1.6919e+06   1.80e-27
  1.7563e+06   1.67e-27
  1.8231e+06   1.54e-27
  1.8925e+06   1.43e-27
  1.9645e+06   1.32e-27
  2.0392e+06   1.22e-27
  2.1168e+06   1.13e-27
  2.1973e+06   1.04e-27
  2.2809e+06   9.60e-28
  2.3677e+06   8.86e-28
  2.4577e+06   8.15e-28
  2.5512e+06   7.52e-28
  2.6483e+06   6.92e-28
  2.7490e+06   6.35e-28
  2.8536e+06   5.84e-28
  2.9622e+06   5.37e-28
  3.0749e+06   4.92e-28
  3.1918e+06   4.51e-28
  3.3133e+06   4.14e-28
  3.4393e+06   3.78e-28
  3.5702e+06   3.46e-28
  3.7060e+06   3.16e-28
  3.8470e+06   2.88e-28
  3.9933e+06   2.63e-28
  4.1452e+06   2.40e-28
  4.3029e+06   2.18e-28
  4.4666e+06   1.98e-28
  4.6366e+06   1.80e-28
  4.8129e+06   1.63e-28
  4.9960e+06   1.48e-28
  5.1861e+06   1.34e-28
  5.3834e+06   1.21e-28
  5.5882e+06   1.09e-28
  5.8008e+06   9.81e-29
  6.0215e+06   8.81e-29
  6.2506e+06   7.90e-29
  6.4883e+06   7.09e-29
  6.7352e+06   6.34e-29
  6.9914e+06   5.65e-29
  7.2574e+06   5.05e-29
  7.5335e+06   4.49e-29
  7.8201e+06   3.98e-29
  8.1176e+06   3.54e-29
  8.4264e+06   3.13e-29
  8.7470e+06   2.75e-29
  9.0797e+06   2.43e-29
  9.4251e+06   2.13e-29
  9.7837e+06   1.85e-29
  1.0156e+07   1.62e-29
  1.0542e+07   1.41e-29
  1.0943e+07   1.22e-29
  1.1360e+07   1.06e-29
  1.1792e+07   9.10e-30
  1.2240e+07   7.76e-30
  1.2706e+07   6.64e-30
  1.3189e+07   5.64e-30
  1.3691e+07   4.75e-30
  1.4212e+07   3.99e-30
  1.4753e+07   3.34e-30
  1.5314e+07   2.75e-30
  1.5897e+07   2.27e-30
  1.6501e+07   1.85e-30
  1.7129e+07   1.49e-30
  1.7781e+07   1.19e-30
  1.8457e+07   9.37e-31
  1.9159e+07   7.25e-31
  1.9888e+07   5.54e-31
  2.0645e+07   4.17e-31
  2.1430e+07   3.05e-31
  2.2245e+07   2.18e-31
  2.3092e+07   1.52e-31
  2.3970e+07   1.01e-31
  2.4882e+07   6.47e-32
  2.5829e+07   3.97e-32
  2.6811e+07   2.27e-32
  2.7831e+07   1.21e-32
  2.8890e+07   5.97e-33
  2.9989e+07   2.63e-33
  3.1130e+07   1.02e-33
  3.2314e+07   3.46e-34
  3.3544e+07   9.62e-35
  3.4820e+07   2.12e-35
  3.6144e+07   3.60e-36
  3.7519e+07   4.26e-37
  3.8947e+07   3.19e-38
  4.0428e+07   1.49e-39
  4.1966e+07   3.34e-41
  4.3563e+07   2.99e-43
  4.5220e+07   1.05e-45
  4.6941e+07   7.67e-49
  4.8726e+07   7.57e-53
  5.0580e+07   6.21e-58
