#  E [MeV]   Flux [# cm^{-2} s^{-1}  MeV^{-1}]
  3.0000e+04   4.60e-21
  3.0765e+04   4.49e-21
  3.1549e+04   4.38e-21
  3.2354e+04   4.27e-21
  3.3179e+04   4.17e-21
  3.4025e+04   4.06e-21
  3.4892e+04   3.97e-21
  3.5782e+04   3.87e-21
  3.6695e+04   3.78e-21
  3.7630e+04   3.69e-21
  3.8590e+04   3.60e-21
  3.9574e+04   3.52e-21
  4.0583e+04   3.44e-21
  4.1618e+04   3.36e-21
  4.2679e+04   3.28e-21
  4.3767e+04   3.21e-21
  4.4883e+04   3.14e-21
  4.6028e+04   3.07e-21
  4.7201e+04   3.00e-21
  4.8405e+04   2.93e-21
  4.9639e+04   2.87e-21
  5.0905e+04   2.81e-21
  5.2203e+04   2.75e-21
  5.3534e+04   2.69e-21
  5.4899e+04   2.63e-21
  5.6299e+04   2.58e-21
  5.7734e+04   2.53e-21
  5.9207e+04   2.47e-21
  6.0716e+04   2.42e-21
  6.2264e+04   2.38e-21
  6.3852e+04   2.33e-21
  6.5480e+04   2.28e-21
  6.7150e+04   2.24e-21
  6.8862e+04   2.20e-21
  7.0618e+04   2.15e-21
  7.2419e+04   2.11e-21
  7.4265e+04   2.07e-21
  7.6159e+04   2.03e-21
  7.8101e+04   2.00e-21
  8.0092e+04   1.96e-21
  8.2135e+04   1.93e-21
  8.4229e+04   1.89e-21
  8.6377e+04   1.86e-21
  8.8579e+04   1.82e-21
  9.0838e+04   1.79e-21
  9.3154e+04   1.76e-21
  9.5529e+04   1.73e-21
  9.7965e+04   1.70e-21
  1.0046e+05   1.67e-21
  1.0303e+05   1.64e-21
  1.0565e+05   1.61e-21
  1.0835e+05   1.58e-21
  1.1111e+05   1.56e-21
  1.1394e+05   1.53e-21
  1.1685e+05   1.50e-21
  1.1983e+05   1.48e-21
  1.2288e+05   1.45e-21
  1.2602e+05   1.43e-21
  1.2923e+05   1.41e-21
  1.3252e+05   1.38e-21
  1.3590e+05   1.36e-21
  1.3937e+05   1.34e-21
  1.4292e+05   1.31e-21
  1.4657e+05   1.29e-21
  1.5030e+05   1.27e-21
  1.5414e+05   1.25e-21
  1.5807e+05   1.23e-21
  1.6210e+05   1.20e-21
  1.6623e+05   1.18e-21
  1.7047e+05   1.16e-21
  1.7482e+05   1.14e-21
  1.7927e+05   1.12e-21
  1.8384e+05   1.10e-21
  1.8853e+05   1.08e-21
  1.9334e+05   1.06e-21
  1.9827e+05   1.04e-21
  2.0333e+05   1.03e-21
  2.0851e+05   1.01e-21
  2.1383e+05   9.89e-22
  2.1928e+05   9.70e-22
  2.2487e+05   9.52e-22
  2.3060e+05   9.34e-22
  2.3648e+05   9.16e-22
  2.4251e+05   8.99e-22
  2.4870e+05   8.81e-22
  2.5504e+05   8.64e-22
  2.6154e+05   8.46e-22
  2.6821e+05   8.29e-22
  2.7505e+05   8.12e-22
  2.8206e+05   7.95e-22
  2.8926e+05   7.79e-22
  2.9663e+05   7.62e-22
  3.0420e+05   7.46e-22
  3.1195e+05   7.29e-22
  3.1991e+05   7.13e-22
  3.2806e+05   6.97e-22
  3.3643e+05   6.81e-22
  3.4501e+05   6.65e-22
  3.5381e+05   6.49e-22
  3.6283e+05   6.33e-22
  3.7208e+05   6.18e-22
  3.8157e+05   6.03e-22
  3.9130e+05   5.88e-22
  4.0127e+05   5.73e-22
  4.1150e+05   5.58e-22
  4.2200e+05   5.44e-22
  4.3276e+05   5.29e-22
  4.4379e+05   5.15e-22
  4.5511e+05   5.00e-22
  4.6671e+05   4.86e-22
  4.7861e+05   4.73e-22
  4.9082e+05   4.59e-22
  5.0333e+05   4.45e-22
  5.1617e+05   4.32e-22
  5.2933e+05   4.19e-22
  5.4283e+05   4.07e-22
  5.5667e+05   3.94e-22
  5.7086e+05   3.81e-22
  5.8542e+05   3.69e-22
  6.0035e+05   3.57e-22
  6.1565e+05   3.46e-22
  6.3135e+05   3.34e-22
  6.4745e+05   3.23e-22
  6.6396e+05   3.12e-22
  6.8089e+05   3.01e-22
  6.9825e+05   2.90e-22
  7.1606e+05   2.80e-22
  7.3432e+05   2.70e-22
  7.5304e+05   2.60e-22
  7.7224e+05   2.50e-22
  7.9193e+05   2.41e-22
  8.1213e+05   2.32e-22
  8.3283e+05   2.23e-22
  8.5407e+05   2.14e-22
  8.7585e+05   2.05e-22
  8.9818e+05   1.97e-22
  9.2108e+05   1.89e-22
  9.4457e+05   1.81e-22
  9.6866e+05   1.73e-22
  9.9336e+05   1.66e-22
  1.0187e+06   1.58e-22
  1.0447e+06   1.51e-22
  1.0713e+06   1.45e-22
  1.0986e+06   1.38e-22
  1.1266e+06   1.31e-22
  1.1554e+06   1.25e-22
  1.1848e+06   1.19e-22
  1.2150e+06   1.14e-22
  1.2460e+06   1.08e-22
  1.2778e+06   1.03e-22
  1.3104e+06   9.76e-23
  1.3438e+06   9.26e-23
  1.3780e+06   8.79e-23
  1.4132e+06   8.32e-23
  1.4492e+06   7.87e-23
  1.4862e+06   7.45e-23
  1.5241e+06   7.04e-23
  1.5629e+06   6.64e-23
  1.6028e+06   6.26e-23
  1.6436e+06   5.90e-23
  1.6856e+06   5.55e-23
  1.7285e+06   5.22e-23
  1.7726e+06   4.89e-23
  1.8178e+06   4.58e-23
  1.8642e+06   4.28e-23
  1.9117e+06   4.00e-23
  1.9604e+06   3.73e-23
  2.0104e+06   3.47e-23
  2.0617e+06   3.23e-23
  2.1143e+06   2.99e-23
  2.1682e+06   2.77e-23
  2.2235e+06   2.57e-23
  2.2802e+06   2.37e-23
  2.3383e+06   2.19e-23
  2.3979e+06   2.01e-23
  2.4591e+06   1.85e-23
  2.5218e+06   1.70e-23
  2.5861e+06   1.55e-23
  2.6520e+06   1.42e-23
  2.7196e+06   1.29e-23
  2.7890e+06   1.18e-23
  2.8601e+06   1.07e-23
  2.9330e+06   9.66e-24
  3.0078e+06   8.68e-24
  3.0845e+06   7.81e-24
  3.1632e+06   7.06e-24
  3.2438e+06   6.35e-24
  3.3265e+06   5.67e-24
  3.4113e+06   5.02e-24
  3.4983e+06   4.52e-24
  3.5875e+06   4.06e-24
  3.6790e+06   3.62e-24
  3.7728e+06   3.20e-24
  3.8690e+06   2.84e-24
  3.9677e+06   2.57e-24
  4.0689e+06   2.32e-24
  4.1726e+06   2.08e-24
  4.2790e+06   1.85e-24
  4.3881e+06   1.70e-24
  4.5000e+06   1.59e-24
