#  E [GeV]   # per interaction  [GeV^{-1}]
  3.0000e+01   5.69e-01
  3.1141e+01   5.46e-01
  3.2326e+01   5.24e-01
  3.3556e+01   5.02e-01
  3.4832e+01   4.82e-01
  3.6157e+01   4.62e-01
  3.7533e+01   4.43e-01
  3.8961e+01   4.25e-01
  4.0443e+01   4.07e-01
  4.1982e+01   3.91e-01
  4.3579e+01   3.74e-01
  4.5237e+01   3.59e-01
  4.6958e+01   3.44e-01
  4.8744e+01   3.30e-01
  5.0598e+01   3.16e-01
  5.2523e+01   3.03e-01
  5.4521e+01   2.90e-01
  5.6596e+01   2.78e-01
  5.8749e+01   2.66e-01
  6.0984e+01   2.55e-01
  6.3304e+01   2.44e-01
  6.5712e+01   2.33e-01
  6.8212e+01   2.23e-01
  7.0807e+01   2.14e-01
  7.3500e+01   2.05e-01
  7.6297e+01   1.96e-01
  7.9199e+01   1.87e-01
  8.2212e+01   1.79e-01
  8.5340e+01   1.71e-01
  8.8586e+01   1.64e-01
  9.1956e+01   1.57e-01
  9.5455e+01   1.50e-01
  9.9086e+01   1.43e-01
  1.0286e+02   1.37e-01
  1.0677e+02   1.30e-01
  1.1083e+02   1.25e-01
  1.1505e+02   1.19e-01
  1.1942e+02   1.13e-01
  1.2397e+02   1.08e-01
  1.2868e+02   1.03e-01
  1.3358e+02   9.85e-02
  1.3866e+02   9.38e-02
  1.4394e+02   8.94e-02
  1.4941e+02   8.52e-02
  1.5509e+02   8.11e-02
  1.6100e+02   7.72e-02
  1.6712e+02   7.35e-02
  1.7348e+02   6.99e-02
  1.8008e+02   6.64e-02
  1.8693e+02   6.31e-02
  1.9404e+02   5.99e-02
  2.0142e+02   5.69e-02
  2.0908e+02   5.40e-02
  2.1704e+02   5.12e-02
  2.2529e+02   4.85e-02
  2.3387e+02   4.60e-02
  2.4276e+02   4.35e-02
  2.5200e+02   4.12e-02
  2.6158e+02   3.90e-02
  2.7154e+02   3.68e-02
  2.8187e+02   3.48e-02
  2.9259e+02   3.29e-02
  3.0372e+02   3.10e-02
  3.1527e+02   2.92e-02
  3.2727e+02   2.75e-02
  3.3972e+02   2.59e-02
  3.5264e+02   2.43e-02
  3.6606e+02   2.28e-02
  3.7998e+02   2.14e-02
  3.9444e+02   2.01e-02
  4.0945e+02   1.88e-02
  4.2502e+02   1.76e-02
  4.4119e+02   1.65e-02
  4.5798e+02   1.54e-02
  4.7540e+02   1.44e-02
  4.9348e+02   1.35e-02
  5.1226e+02   1.26e-02
  5.3175e+02   1.17e-02
  5.5198e+02   1.09e-02
  5.7297e+02   1.02e-02
  5.9477e+02   9.46e-03
  6.1740e+02   8.79e-03
  6.4089e+02   8.17e-03
  6.6527e+02   7.58e-03
  6.9058e+02   7.03e-03
  7.1685e+02   6.52e-03
  7.4412e+02   6.05e-03
  7.7243e+02   5.60e-03
  8.0181e+02   5.19e-03
  8.3232e+02   4.81e-03
  8.6398e+02   4.45e-03
  8.9685e+02   4.12e-03
  9.3097e+02   3.81e-03
  9.6638e+02   3.52e-03
  1.0031e+03   3.25e-03
  1.0413e+03   3.01e-03
  1.0809e+03   2.78e-03
  1.1220e+03   2.57e-03
  1.1647e+03   2.37e-03
  1.2090e+03   2.19e-03
  1.2550e+03   2.02e-03
  1.3028e+03   1.87e-03
  1.3523e+03   1.72e-03
  1.4038e+03   1.59e-03
  1.4572e+03   1.47e-03
  1.5126e+03   1.35e-03
  1.5702e+03   1.25e-03
  1.6299e+03   1.15e-03
  1.6919e+03   1.06e-03
  1.7563e+03   9.78e-04
  1.8231e+03   9.01e-04
  1.8925e+03   8.29e-04
  1.9645e+03   7.64e-04
  2.0392e+03   7.03e-04
  2.1168e+03   6.47e-04
  2.1973e+03   5.95e-04
  2.2809e+03   5.47e-04
  2.3677e+03   5.02e-04
  2.4577e+03   4.61e-04
  2.5512e+03   4.23e-04
  2.6483e+03   3.87e-04
  2.7490e+03   3.55e-04
  2.8536e+03   3.25e-04
  2.9622e+03   2.97e-04
  3.0749e+03   2.71e-04
  3.1918e+03   2.47e-04
  3.3133e+03   2.25e-04
  3.4393e+03   2.05e-04
  3.5702e+03   1.87e-04
  3.7060e+03   1.70e-04
  3.8470e+03   1.54e-04
  3.9933e+03   1.39e-04
  4.1452e+03   1.26e-04
  4.3029e+03   1.14e-04
  4.4666e+03   1.03e-04
  4.6366e+03   9.25e-05
  4.8129e+03   8.30e-05
  4.9960e+03   7.46e-05
  5.1861e+03   6.67e-05
  5.3834e+03   5.94e-05
  5.5882e+03   5.31e-05
  5.8008e+03   4.72e-05
  6.0215e+03   4.17e-05
  6.2506e+03   3.70e-05
  6.4883e+03   3.27e-05
  6.7352e+03   2.87e-05
  6.9914e+03   2.52e-05
  7.2574e+03   2.20e-05
  7.5335e+03   1.91e-05
  7.8201e+03   1.66e-05
  8.1176e+03   1.44e-05
  8.4264e+03   1.24e-05
  8.7470e+03   1.06e-05
  9.0797e+03   9.06e-06
  9.4251e+03   7.67e-06
  9.7837e+03   6.47e-06
  1.0156e+04   5.44e-06
  1.0542e+04   4.52e-06
  1.0943e+04   3.74e-06
  1.1360e+04   3.08e-06
  1.1792e+04   2.50e-06
  1.2240e+04   2.01e-06
  1.2706e+04   1.61e-06
  1.3189e+04   1.27e-06
  1.3691e+04   9.92e-07
  1.4212e+04   7.67e-07
  1.4753e+04   5.81e-07
  1.5314e+04   4.33e-07
  1.5897e+04   3.18e-07
  1.6501e+04   2.28e-07
  1.7129e+04   1.59e-07
  1.7781e+04   1.09e-07
  1.8457e+04   7.22e-08
  1.9159e+04   4.59e-08
  1.9888e+04   2.84e-08
  2.0645e+04   1.67e-08
  2.1430e+04   9.24e-09
  2.2245e+04   4.87e-09
  2.3092e+04   2.37e-09
  2.3970e+04   1.06e-09
  2.4882e+04   4.32e-10
  2.5829e+04   1.56e-10
  2.6811e+04   4.89e-11
  2.7831e+04   1.31e-11
  2.8890e+04   2.87e-12
  2.9989e+04   4.92e-13
  3.1130e+04   6.43e-14
  3.2314e+04   5.92e-15
  3.3544e+04   3.54e-16
  3.4820e+04   1.28e-17
  3.6144e+04   2.42e-19
  3.7519e+04   2.04e-21
  3.8947e+04   6.58e-24
  4.0428e+04   6.09e-27
  4.1966e+04   1.11e-30
  4.3563e+04   2.93e-35
  4.5220e+04   5.79e-41
  4.6941e+04   6.68e-46
  4.8726e+04   8.24e-46
  5.0580e+04   1.03e-45
