#  E [MeV]   Flux [# cm^{-2} s^{-1}  MeV^{-1}]
  3.0000e+04   2.32e-25
  3.1141e+04   2.23e-25
  3.2326e+04   2.14e-25
  3.3556e+04   2.05e-25
  3.4832e+04   1.97e-25
  3.6157e+04   1.89e-25
  3.7533e+04   1.81e-25
  3.8961e+04   1.74e-25
  4.0443e+04   1.66e-25
  4.1982e+04   1.59e-25
  4.3579e+04   1.53e-25
  4.5237e+04   1.47e-25
  4.6958e+04   1.40e-25
  4.8744e+04   1.35e-25
  5.0598e+04   1.29e-25
  5.2523e+04   1.24e-25
  5.4521e+04   1.18e-25
  5.6596e+04   1.13e-25
  5.8749e+04   1.09e-25
  6.0984e+04   1.04e-25
  6.3304e+04   9.96e-26
  6.5712e+04   9.53e-26
  6.8212e+04   9.12e-26
  7.0807e+04   8.73e-26
  7.3500e+04   8.36e-26
  7.6297e+04   8.00e-26
  7.9199e+04   7.65e-26
  8.2212e+04   7.32e-26
  8.5340e+04   7.00e-26
  8.8586e+04   6.69e-26
  9.1956e+04   6.39e-26
  9.5455e+04   6.11e-26
  9.9086e+04   5.84e-26
  1.0286e+05   5.58e-26
  1.0677e+05   5.33e-26
  1.1083e+05   5.09e-26
  1.1505e+05   4.85e-26
  1.1942e+05   4.63e-26
  1.2397e+05   4.42e-26
  1.2868e+05   4.22e-26
  1.3358e+05   4.02e-26
  1.3866e+05   3.83e-26
  1.4394e+05   3.65e-26
  1.4941e+05   3.48e-26
  1.5509e+05   3.31e-26
  1.6100e+05   3.15e-26
  1.6712e+05   3.00e-26
  1.7348e+05   2.85e-26
  1.8008e+05   2.71e-26
  1.8693e+05   2.58e-26
  1.9404e+05   2.45e-26
  2.0142e+05   2.32e-26
  2.0908e+05   2.20e-26
  2.1704e+05   2.09e-26
  2.2529e+05   1.98e-26
  2.3387e+05   1.88e-26
  2.4276e+05   1.78e-26
  2.5200e+05   1.68e-26
  2.6158e+05   1.59e-26
  2.7154e+05   1.50e-26
  2.8187e+05   1.42e-26
  2.9259e+05   1.34e-26
  3.0372e+05   1.27e-26
  3.1527e+05   1.19e-26
  3.2727e+05   1.12e-26
  3.3972e+05   1.06e-26
  3.5264e+05   9.93e-27
  3.6606e+05   9.33e-27
  3.7998e+05   8.76e-27
  3.9444e+05   8.21e-27
  4.0945e+05   7.70e-27
  4.2502e+05   7.21e-27
  4.4119e+05   6.75e-27
  4.5798e+05   6.31e-27
  4.7540e+05   5.89e-27
  4.9348e+05   5.50e-27
  5.1226e+05   5.13e-27
  5.3175e+05   4.79e-27
  5.5198e+05   4.46e-27
  5.7297e+05   4.15e-27
  5.9477e+05   3.86e-27
  6.1740e+05   3.59e-27
  6.4089e+05   3.34e-27
  6.6527e+05   3.10e-27
  6.9058e+05   2.87e-27
  7.1685e+05   2.66e-27
  7.4412e+05   2.47e-27
  7.7243e+05   2.29e-27
  8.0181e+05   2.12e-27
  8.3232e+05   1.96e-27
  8.6398e+05   1.82e-27
  8.9685e+05   1.68e-27
  9.3097e+05   1.55e-27
  9.6638e+05   1.44e-27
  1.0031e+06   1.33e-27
  1.0413e+06   1.23e-27
  1.0809e+06   1.14e-27
  1.1220e+06   1.05e-27
  1.1647e+06   9.69e-28
  1.2090e+06   8.95e-28
  1.2550e+06   8.27e-28
  1.3028e+06   7.63e-28
  1.3523e+06   7.04e-28
  1.4038e+06   6.50e-28
  1.4572e+06   5.99e-28
  1.5126e+06   5.53e-28
  1.5702e+06   5.10e-28
  1.6299e+06   4.70e-28
  1.6919e+06   4.33e-28
  1.7563e+06   3.99e-28
  1.8231e+06   3.68e-28
  1.8925e+06   3.39e-28
  1.9645e+06   3.12e-28
  2.0392e+06   2.87e-28
  2.1168e+06   2.64e-28
  2.1973e+06   2.43e-28
  2.2809e+06   2.23e-28
  2.3677e+06   2.05e-28
  2.4577e+06   1.88e-28
  2.5512e+06   1.73e-28
  2.6483e+06   1.58e-28
  2.7490e+06   1.45e-28
  2.8536e+06   1.33e-28
  2.9622e+06   1.21e-28
  3.0749e+06   1.11e-28
  3.1918e+06   1.01e-28
  3.3133e+06   9.21e-29
  3.4393e+06   8.38e-29
  3.5702e+06   7.63e-29
  3.7060e+06   6.93e-29
  3.8470e+06   6.28e-29
  3.9933e+06   5.70e-29
  4.1452e+06   5.15e-29
  4.3029e+06   4.65e-29
  4.4666e+06   4.20e-29
  4.6366e+06   3.78e-29
  4.8129e+06   3.39e-29
  4.9960e+06   3.05e-29
  5.1861e+06   2.72e-29
  5.3834e+06   2.43e-29
  5.5882e+06   2.17e-29
  5.8008e+06   1.93e-29
  6.0215e+06   1.70e-29
  6.2506e+06   1.51e-29
  6.4883e+06   1.33e-29
  6.7352e+06   1.17e-29
  6.9914e+06   1.03e-29
  7.2574e+06   9.00e-30
  7.5335e+06   7.82e-30
  7.8201e+06   6.79e-30
  8.1176e+06   5.88e-30
  8.4264e+06   5.05e-30
  8.7470e+06   4.33e-30
  9.0797e+06   3.70e-30
  9.4251e+06   3.13e-30
  9.7837e+06   2.64e-30
  1.0156e+07   2.22e-30
  1.0542e+07   1.85e-30
  1.0943e+07   1.53e-30
  1.1360e+07   1.26e-30
  1.1792e+07   1.02e-30
  1.2240e+07   8.23e-31
  1.2706e+07   6.59e-31
  1.3189e+07   5.20e-31
  1.3691e+07   4.05e-31
  1.4212e+07   3.13e-31
  1.4753e+07   2.37e-31
  1.5314e+07   1.77e-31
  1.5897e+07   1.30e-31
  1.6501e+07   9.32e-32
  1.7129e+07   6.51e-32
  1.7781e+07   4.46e-32
  1.8457e+07   2.95e-32
  1.9159e+07   1.87e-32
  1.9888e+07   1.16e-32
  2.0645e+07   6.81e-33
  2.1430e+07   3.77e-33
  2.2245e+07   1.99e-33
  2.3092e+07   9.70e-34
  2.3970e+07   4.32e-34
  2.4882e+07   1.77e-34
  2.5829e+07   6.39e-35
  2.6811e+07   2.00e-35
  2.7831e+07   5.35e-36
  2.8890e+07   1.17e-36
  2.9989e+07   2.01e-37
  3.1130e+07   2.63e-38
  3.2314e+07   2.42e-39
  3.3544e+07   1.44e-40
  3.4820e+07   5.22e-42
  3.6144e+07   9.90e-44
  3.7519e+07   8.32e-46
  3.8947e+07   2.69e-48
  4.0428e+07   2.49e-51
  4.1966e+07   4.52e-55
  4.3563e+07   1.20e-59
  4.5220e+07   2.36e-65
  4.6941e+07   2.73e-70
  4.8726e+07   3.37e-70
  5.0580e+07   4.21e-70
