#  E [GeV]   # per interaction  [GeV^{-1}]
  3.0000e+01   1.41e+00
  3.1232e+01   1.34e+00
  3.2514e+01   1.28e+00
  3.3849e+01   1.22e+00
  3.5238e+01   1.16e+00
  3.6685e+01   1.11e+00
  3.8191e+01   1.06e+00
  3.9759e+01   1.01e+00
  4.1391e+01   9.58e-01
  4.3090e+01   9.12e-01
  4.4859e+01   8.68e-01
  4.6701e+01   8.26e-01
  4.8618e+01   7.86e-01
  5.0614e+01   7.48e-01
  5.2692e+01   7.11e-01
  5.4855e+01   6.77e-01
  5.7107e+01   6.44e-01
  5.9451e+01   6.12e-01
  6.1892e+01   5.82e-01
  6.4433e+01   5.53e-01
  6.7078e+01   5.25e-01
  6.9832e+01   4.99e-01
  7.2699e+01   4.74e-01
  7.5683e+01   4.50e-01
  7.8790e+01   4.28e-01
  8.2025e+01   4.06e-01
  8.5392e+01   3.85e-01
  8.8898e+01   3.66e-01
  9.2547e+01   3.47e-01
  9.6347e+01   3.29e-01
  1.0030e+02   3.13e-01
  1.0442e+02   2.96e-01
  1.0871e+02   2.81e-01
  1.1317e+02   2.67e-01
  1.1782e+02   2.53e-01
  1.2265e+02   2.40e-01
  1.2769e+02   2.27e-01
  1.3293e+02   2.15e-01
  1.3839e+02   2.04e-01
  1.4407e+02   1.93e-01
  1.4998e+02   1.83e-01
  1.5614e+02   1.73e-01
  1.6255e+02   1.64e-01
  1.6922e+02   1.55e-01
  1.7617e+02   1.47e-01
  1.8340e+02   1.39e-01
  1.9093e+02   1.31e-01
  1.9877e+02   1.24e-01
  2.0693e+02   1.18e-01
  2.1543e+02   1.11e-01
  2.2427e+02   1.05e-01
  2.3348e+02   9.94e-02
  2.4306e+02   9.39e-02
  2.5304e+02   8.87e-02
  2.6343e+02   8.38e-02
  2.7424e+02   7.92e-02
  2.8550e+02   7.48e-02
  2.9722e+02   7.06e-02
  3.0942e+02   6.66e-02
  3.2213e+02   6.29e-02
  3.3535e+02   5.93e-02
  3.4912e+02   5.59e-02
  3.6345e+02   5.28e-02
  3.7837e+02   4.98e-02
  3.9390e+02   4.69e-02
  4.1008e+02   4.42e-02
  4.2691e+02   4.16e-02
  4.4444e+02   3.92e-02
  4.6268e+02   3.69e-02
  4.8168e+02   3.48e-02
  5.0145e+02   3.27e-02
  5.2204e+02   3.08e-02
  5.4347e+02   2.90e-02
  5.6578e+02   2.73e-02
  5.8901e+02   2.56e-02
  6.1319e+02   2.41e-02
  6.3836e+02   2.26e-02
  6.6457e+02   2.13e-02
  6.9185e+02   2.00e-02
  7.2025e+02   1.87e-02
  7.4982e+02   1.76e-02
  7.8061e+02   1.65e-02
  8.1265e+02   1.54e-02
  8.4601e+02   1.45e-02
  8.8075e+02   1.35e-02
  9.1690e+02   1.27e-02
  9.5455e+02   1.19e-02
  9.9373e+02   1.11e-02
  1.0345e+03   1.04e-02
  1.0770e+03   9.67e-03
  1.1212e+03   9.03e-03
  1.1672e+03   8.42e-03
  1.2152e+03   7.84e-03
  1.2650e+03   7.31e-03
  1.3170e+03   6.80e-03
  1.3711e+03   6.33e-03
  1.4273e+03   5.89e-03
  1.4859e+03   5.48e-03
  1.5469e+03   5.10e-03
  1.6104e+03   4.74e-03
  1.6766e+03   4.41e-03
  1.7454e+03   4.10e-03
  1.8170e+03   3.80e-03
  1.8916e+03   3.53e-03
  1.9693e+03   3.28e-03
  2.0501e+03   3.04e-03
  2.1343e+03   2.82e-03
  2.2219e+03   2.61e-03
  2.3131e+03   2.42e-03
  2.4081e+03   2.23e-03
  2.5070e+03   2.06e-03
  2.6099e+03   1.91e-03
  2.7170e+03   1.76e-03
  2.8286e+03   1.62e-03
  2.9447e+03   1.49e-03
  3.0656e+03   1.37e-03
  3.1914e+03   1.26e-03
  3.3225e+03   1.16e-03
  3.4589e+03   1.06e-03
  3.6008e+03   9.75e-04
  3.7487e+03   8.93e-04
  3.9026e+03   8.17e-04
  4.0628e+03   7.46e-04
  4.2296e+03   6.81e-04
  4.4032e+03   6.20e-04
  4.5840e+03   5.65e-04
  4.7722e+03   5.13e-04
  4.9681e+03   4.65e-04
  5.1720e+03   4.22e-04
  5.3844e+03   3.82e-04
  5.6054e+03   3.45e-04
  5.8355e+03   3.11e-04
  6.0751e+03   2.80e-04
  6.3245e+03   2.52e-04
  6.5841e+03   2.26e-04
  6.8544e+03   2.03e-04
  7.1358e+03   1.81e-04
  7.4288e+03   1.62e-04
  7.7338e+03   1.44e-04
  8.0513e+03   1.28e-04
  8.3818e+03   1.14e-04
  8.7259e+03   1.00e-04
  9.0841e+03   8.85e-05
  9.4571e+03   7.80e-05
  9.8453e+03   6.82e-05
  1.0249e+04   5.98e-05
  1.0670e+04   5.23e-05
  1.1108e+04   4.53e-05
  1.1564e+04   3.95e-05
  1.2039e+04   3.42e-05
  1.2533e+04   2.93e-05
  1.3048e+04   2.53e-05
  1.3584e+04   2.17e-05
  1.4141e+04   1.84e-05
  1.4722e+04   1.57e-05
  1.5326e+04   1.32e-05
  1.5955e+04   1.11e-05
  1.6610e+04   9.34e-06
  1.7292e+04   7.75e-06
  1.8002e+04   6.40e-06
  1.8741e+04   5.28e-06
  1.9511e+04   4.28e-06
  2.0312e+04   3.46e-06
  2.1145e+04   2.78e-06
  2.2013e+04   2.19e-06
  2.2917e+04   1.72e-06
  2.3858e+04   1.33e-06
  2.4837e+04   1.00e-06
  2.5857e+04   7.55e-07
  2.6919e+04   5.53e-07
  2.8024e+04   3.88e-07
  2.9174e+04   2.71e-07
  3.0372e+04   1.80e-07
  3.1619e+04   1.13e-07
  3.2917e+04   6.93e-08
  3.4268e+04   3.90e-08
  3.5675e+04   2.01e-08
  3.7140e+04   9.55e-09
  3.8664e+04   3.92e-09
  4.0252e+04   1.37e-09
  4.1904e+04   3.93e-10
  4.3624e+04   8.45e-11
  4.5415e+04   1.28e-11
  4.7280e+04   1.23e-12
  4.9221e+04   6.28e-14
  5.1241e+04   1.40e-15
  5.3345e+04   1.01e-17
  5.5535e+04   1.52e-20
  5.7815e+04   2.68e-24
  6.0188e+04   2.27e-29
  6.2659e+04   2.53e-36
  6.5232e+04   5.61e-46
  6.7910e+04   7.34e-48
  7.0698e+04   6.55e-48
  7.3600e+04   5.88e-48
  7.6621e+04   5.24e-48
  7.9767e+04   4.65e-48
  8.3042e+04   4.08e-48
  8.6451e+04   3.55e-48
  9.0000e+04   3.08e-48
