#  E [MeV]   Flux [# cm^{-2} s^{-1}  MeV^{-1}]
  3.0000e+04   3.56e-25
  3.1232e+04   3.39e-25
  3.2514e+04   3.23e-25
  3.3849e+04   3.08e-25
  3.5238e+04   2.93e-25
  3.6685e+04   2.80e-25
  3.8191e+04   2.66e-25
  3.9759e+04   2.53e-25
  4.1391e+04   2.41e-25
  4.3090e+04   2.30e-25
  4.4859e+04   2.19e-25
  4.6701e+04   2.08e-25
  4.8618e+04   1.98e-25
  5.0614e+04   1.88e-25
  5.2692e+04   1.79e-25
  5.4855e+04   1.70e-25
  5.7107e+04   1.62e-25
  5.9451e+04   1.54e-25
  6.1892e+04   1.46e-25
  6.4433e+04   1.39e-25
  6.7078e+04   1.32e-25
  6.9832e+04   1.25e-25
  7.2699e+04   1.19e-25
  7.5683e+04   1.13e-25
  7.8790e+04   1.07e-25
  8.2025e+04   1.01e-25
  8.5392e+04   9.63e-26
  8.8898e+04   9.13e-26
  9.2547e+04   8.66e-26
  9.6347e+04   8.21e-26
  1.0030e+05   7.78e-26
  1.0442e+05   7.37e-26
  1.0871e+05   6.98e-26
  1.1317e+05   6.61e-26
  1.1782e+05   6.26e-26
  1.2265e+05   5.93e-26
  1.2769e+05   5.61e-26
  1.3293e+05   5.31e-26
  1.3839e+05   5.02e-26
  1.4407e+05   4.74e-26
  1.4998e+05   4.48e-26
  1.5614e+05   4.24e-26
  1.6255e+05   4.00e-26
  1.6922e+05   3.78e-26
  1.7617e+05   3.56e-26
  1.8340e+05   3.36e-26
  1.9093e+05   3.17e-26
  1.9877e+05   2.99e-26
  2.0693e+05   2.82e-26
  2.1543e+05   2.65e-26
  2.2427e+05   2.50e-26
  2.3348e+05   2.35e-26
  2.4306e+05   2.21e-26
  2.5304e+05   2.08e-26
  2.6343e+05   1.95e-26
  2.7424e+05   1.83e-26
  2.8550e+05   1.72e-26
  2.9722e+05   1.61e-26
  3.0942e+05   1.51e-26
  3.2213e+05   1.41e-26
  3.3535e+05   1.32e-26
  3.4912e+05   1.23e-26
  3.6345e+05   1.15e-26
  3.7837e+05   1.08e-26
  3.9390e+05   1.00e-26
  4.1008e+05   9.37e-27
  4.2691e+05   8.72e-27
  4.4444e+05   8.12e-27
  4.6268e+05   7.55e-27
  4.8168e+05   7.02e-27
  5.0145e+05   6.52e-27
  5.2204e+05   6.05e-27
  5.4347e+05   5.61e-27
  5.6578e+05   5.20e-27
  5.8901e+05   4.82e-27
  6.1319e+05   4.46e-27
  6.3836e+05   4.12e-27
  6.6457e+05   3.81e-27
  6.9185e+05   3.52e-27
  7.2025e+05   3.25e-27
  7.4982e+05   3.00e-27
  7.8061e+05   2.77e-27
  8.1265e+05   2.55e-27
  8.4601e+05   2.35e-27
  8.8075e+05   2.17e-27
  9.1690e+05   2.00e-27
  9.5455e+05   1.84e-27
  9.9373e+05   1.69e-27
  1.0345e+06   1.56e-27
  1.0770e+06   1.43e-27
  1.1212e+06   1.32e-27
  1.1672e+06   1.21e-27
  1.2152e+06   1.11e-27
  1.2650e+06   1.02e-27
  1.3170e+06   9.39e-28
  1.3711e+06   8.64e-28
  1.4273e+06   7.95e-28
  1.4859e+06   7.31e-28
  1.5469e+06   6.72e-28
  1.6104e+06   6.19e-28
  1.6766e+06   5.69e-28
  1.7454e+06   5.24e-28
  1.8170e+06   4.82e-28
  1.8916e+06   4.43e-28
  1.9693e+06   4.07e-28
  2.0501e+06   3.74e-28
  2.1343e+06   3.44e-28
  2.2219e+06   3.16e-28
  2.3131e+06   2.90e-28
  2.4081e+06   2.65e-28
  2.5070e+06   2.43e-28
  2.6099e+06   2.22e-28
  2.7170e+06   2.03e-28
  2.8286e+06   1.86e-28
  2.9447e+06   1.69e-28
  3.0656e+06   1.54e-28
  3.1914e+06   1.40e-28
  3.3225e+06   1.28e-28
  3.4589e+06   1.16e-28
  3.6008e+06   1.05e-28
  3.7487e+06   9.46e-29
  3.9026e+06   8.54e-29
  4.0628e+06   7.69e-29
  4.2296e+06   6.90e-29
  4.4032e+06   6.19e-29
  4.5840e+06   5.53e-29
  4.7722e+06   4.92e-29
  4.9681e+06   4.38e-29
  5.1720e+06   3.88e-29
  5.3844e+06   3.42e-29
  5.6054e+06   3.02e-29
  5.8355e+06   2.64e-29
  6.0751e+06   2.31e-29
  6.3245e+06   2.01e-29
  6.5841e+06   1.74e-29
  6.8544e+06   1.50e-29
  7.1358e+06   1.29e-29
  7.4288e+06   1.09e-29
  7.7338e+06   9.29e-30
  8.0513e+06   7.84e-30
  8.3818e+06   6.54e-30
  8.7259e+06   5.45e-30
  9.0841e+06   4.49e-30
  9.4571e+06   3.65e-30
  9.8453e+06   2.97e-30
  1.0249e+07   2.38e-30
  1.0670e+07   1.88e-30
  1.1108e+07   1.48e-30
  1.1564e+07   1.14e-30
  1.2039e+07   8.67e-31
  1.2533e+07   6.54e-31
  1.3048e+07   4.81e-31
  1.3584e+07   3.47e-31
  1.4141e+07   2.47e-31
  1.4722e+07   1.70e-31
  1.5326e+07   1.14e-31
  1.5955e+07   7.48e-32
  1.6610e+07   4.70e-32
  1.7292e+07   2.85e-32
  1.8002e+07   1.66e-32
  1.8741e+07   9.09e-33
  1.9511e+07   4.75e-33
  2.0312e+07   2.32e-33
  2.1145e+07   1.04e-33
  2.2013e+07   4.31e-34
  2.2917e+07   1.61e-34
  2.3858e+07   5.21e-35
  2.4837e+07   1.50e-35
  2.5857e+07   3.60e-36
  2.6919e+07   6.96e-37
  2.8024e+07   1.08e-37
  2.9174e+07   1.23e-38
  3.0372e+07   9.72e-40
  3.1619e+07   5.07e-41
  3.2917e+07   1.53e-42
  3.4268e+07   2.38e-44
  3.5675e+07   1.65e-46
  3.7140e+07   3.99e-49
  3.8664e+07   2.65e-52
  4.0252e+07   3.36e-56
  4.1904e+07   4.95e-61
  4.3624e+07   4.63e-67
  4.5415e+07   5.80e-72
  4.7280e+07   4.99e-72
  4.9221e+07   4.40e-72
  5.1241e+07   3.87e-72
  5.3345e+07   3.37e-72
  5.5535e+07   3.02e-72
  5.7815e+07   2.69e-72
  6.0188e+07   2.38e-72
  6.2659e+07   2.15e-72
  6.5232e+07   1.92e-72
  6.7910e+07   1.72e-72
  7.0698e+07   1.54e-72
  7.3600e+07   1.37e-72
  7.6621e+07   1.22e-72
  7.9767e+07   1.07e-72
  8.3042e+07   9.26e-73
  8.6451e+07   8.06e-73
  9.0000e+07   7.01e-73
