#  E [GeV]   # per interaction  [GeV^{-1}]
  3.0000e+01   9.19e-01
  3.1033e+01   8.81e-01
  3.2102e+01   8.45e-01
  3.3207e+01   8.10e-01
  3.4350e+01   7.76e-01
  3.5533e+01   7.43e-01
  3.6757e+01   7.12e-01
  3.8022e+01   6.82e-01
  3.9332e+01   6.53e-01
  4.0686e+01   6.25e-01
  4.2087e+01   5.98e-01
  4.3536e+01   5.73e-01
  4.5035e+01   5.48e-01
  4.6586e+01   5.24e-01
  4.8190e+01   5.01e-01
  4.9850e+01   4.80e-01
  5.1566e+01   4.59e-01
  5.3342e+01   4.39e-01
  5.5178e+01   4.19e-01
  5.7078e+01   4.01e-01
  5.9044e+01   3.83e-01
  6.1077e+01   3.66e-01
  6.3180e+01   3.50e-01
  6.5356e+01   3.34e-01
  6.7606e+01   3.19e-01
  6.9934e+01   3.04e-01
  7.2342e+01   2.91e-01
  7.4833e+01   2.77e-01
  7.7410e+01   2.65e-01
  8.0075e+01   2.52e-01
  8.2833e+01   2.41e-01
  8.5685e+01   2.30e-01
  8.8635e+01   2.19e-01
  9.1687e+01   2.09e-01
  9.4844e+01   1.99e-01
  9.8110e+01   1.89e-01
  1.0149e+02   1.80e-01
  1.0498e+02   1.72e-01
  1.0860e+02   1.63e-01
  1.1234e+02   1.55e-01
  1.1621e+02   1.48e-01
  1.2021e+02   1.41e-01
  1.2435e+02   1.34e-01
  1.2863e+02   1.27e-01
  1.3306e+02   1.21e-01
  1.3764e+02   1.15e-01
  1.4238e+02   1.09e-01
  1.4728e+02   1.03e-01
  1.5235e+02   9.81e-02
  1.5760e+02   9.30e-02
  1.6302e+02   8.81e-02
  1.6864e+02   8.35e-02
  1.7445e+02   7.91e-02
  1.8045e+02   7.48e-02
  1.8667e+02   7.08e-02
  1.9309e+02   6.69e-02
  1.9974e+02   6.32e-02
  2.0662e+02   5.97e-02
  2.1373e+02   5.64e-02
  2.2109e+02   5.32e-02
  2.2871e+02   5.02e-02
  2.3658e+02   4.73e-02
  2.4473e+02   4.46e-02
  2.5316e+02   4.19e-02
  2.6187e+02   3.95e-02
  2.7089e+02   3.71e-02
  2.8022e+02   3.49e-02
  2.8987e+02   3.28e-02
  2.9985e+02   3.07e-02
  3.1017e+02   2.88e-02
  3.2085e+02   2.70e-02
  3.3190e+02   2.53e-02
  3.4333e+02   2.37e-02
  3.5515e+02   2.22e-02
  3.6738e+02   2.07e-02
  3.8003e+02   1.93e-02
  3.9312e+02   1.81e-02
  4.0665e+02   1.68e-02
  4.2066e+02   1.57e-02
  4.3514e+02   1.46e-02
  4.5013e+02   1.36e-02
  4.6562e+02   1.26e-02
  4.8166e+02   1.17e-02
  4.9824e+02   1.09e-02
  5.1540e+02   1.01e-02
  5.3315e+02   9.37e-03
  5.5150e+02   8.69e-03
  5.7050e+02   8.04e-03
  5.9014e+02   7.44e-03
  6.1046e+02   6.87e-03
  6.3148e+02   6.34e-03
  6.5322e+02   5.85e-03
  6.7572e+02   5.39e-03
  6.9898e+02   4.97e-03
  7.2305e+02   4.57e-03
  7.4795e+02   4.21e-03
  7.7371e+02   3.87e-03
  8.0035e+02   3.55e-03
  8.2791e+02   3.26e-03
  8.5641e+02   2.99e-03
  8.8590e+02   2.75e-03
  9.1641e+02   2.52e-03
  9.4796e+02   2.30e-03
  9.8061e+02   2.11e-03
  1.0144e+03   1.93e-03
  1.0493e+03   1.77e-03
  1.0854e+03   1.61e-03
  1.1228e+03   1.48e-03
  1.1615e+03   1.35e-03
  1.2015e+03   1.23e-03
  1.2428e+03   1.12e-03
  1.2856e+03   1.02e-03
  1.3299e+03   9.31e-04
  1.3757e+03   8.48e-04
  1.4231e+03   7.72e-04
  1.4721e+03   7.01e-04
  1.5228e+03   6.36e-04
  1.5752e+03   5.79e-04
  1.6294e+03   5.26e-04
  1.6855e+03   4.76e-04
  1.7436e+03   4.32e-04
  1.8036e+03   3.92e-04
  1.8657e+03   3.54e-04
  1.9300e+03   3.20e-04
  1.9964e+03   2.90e-04
  2.0652e+03   2.62e-04
  2.1363e+03   2.35e-04
  2.2098e+03   2.13e-04
  2.2859e+03   1.92e-04
  2.3646e+03   1.72e-04
  2.4461e+03   1.55e-04
  2.5303e+03   1.39e-04
  2.6174e+03   1.25e-04
  2.7075e+03   1.11e-04
  2.8008e+03   1.00e-04
  2.8972e+03   8.93e-05
  2.9970e+03   7.94e-05
  3.1002e+03   7.09e-05
  3.2069e+03   6.33e-05
  3.3173e+03   5.61e-05
  3.4316e+03   4.97e-05
  3.5497e+03   4.43e-05
  3.6720e+03   3.92e-05
  3.7984e+03   3.44e-05
  3.9292e+03   3.06e-05
  4.0645e+03   2.70e-05
  4.2044e+03   2.36e-05
  4.3492e+03   2.08e-05
  4.4990e+03   1.83e-05
  4.6539e+03   1.60e-05
  4.8141e+03   1.39e-05
  4.9799e+03   1.22e-05
  5.1514e+03   1.07e-05
  5.3288e+03   9.20e-06
  5.5123e+03   8.03e-06
  5.7021e+03   6.98e-06
  5.8984e+03   6.01e-06
  6.1015e+03   5.18e-06
  6.3116e+03   4.50e-06
  6.5289e+03   3.87e-06
  6.7538e+03   3.29e-06
  6.9863e+03   2.85e-06
  7.2269e+03   2.44e-06
  7.4757e+03   2.08e-06
  7.7331e+03   1.77e-06
  7.9994e+03   1.52e-06
  8.2749e+03   1.29e-06
  8.5598e+03   1.08e-06
  8.8546e+03   9.23e-07
  9.1594e+03   7.79e-07
  9.4748e+03   6.50e-07
  9.8011e+03   5.49e-07
  1.0139e+04   4.62e-07
  1.0488e+04   3.85e-07
  1.0849e+04   3.20e-07
  1.1222e+04   2.68e-07
  1.1609e+04   2.21e-07
  1.2009e+04   1.81e-07
  1.2422e+04   1.49e-07
  1.2850e+04   1.21e-07
  1.3292e+04   9.73e-08
  1.3750e+04   7.78e-08
  1.4223e+04   6.18e-08
  1.4713e+04   4.84e-08
  1.5220e+04   3.73e-08
  1.5744e+04   2.86e-08
  1.6286e+04   2.14e-08
  1.6847e+04   1.58e-08
  1.7427e+04   1.14e-08
  1.8027e+04   8.01e-09
  1.8648e+04   5.47e-09
  1.9290e+04   3.61e-09
  1.9954e+04   2.30e-09
  2.0641e+04   1.40e-09
  2.1352e+04   8.10e-10
  2.2087e+04   4.43e-10
  2.2848e+04   2.27e-10
  2.3634e+04   1.08e-10
  2.4448e+04   4.80e-11
  2.5290e+04   1.96e-11
