#  E [GeV]   # per interaction  [GeV^{-1}]
  3.0000e+01   2.11e-02
  3.1033e+01   2.03e-02
  3.2102e+01   1.96e-02
  3.3207e+01   1.88e-02
  3.4350e+01   1.81e-02
  3.5533e+01   1.74e-02
  3.6757e+01   1.67e-02
  3.8022e+01   1.61e-02
  3.9332e+01   1.54e-02
  4.0686e+01   1.48e-02
  4.2087e+01   1.42e-02
  4.3536e+01   1.37e-02
  4.5035e+01   1.31e-02
  4.6586e+01   1.26e-02
  4.8190e+01   1.21e-02
  4.9850e+01   1.16e-02
  5.1566e+01   1.11e-02
  5.3342e+01   1.07e-02
  5.5178e+01   1.02e-02
  5.7078e+01   9.78e-03
  5.9044e+01   9.37e-03
  6.1077e+01   8.97e-03
  6.3180e+01   8.59e-03
  6.5356e+01   8.23e-03
  6.7606e+01   7.87e-03
  6.9934e+01   7.53e-03
  7.2342e+01   7.21e-03
  7.4833e+01   6.89e-03
  7.7410e+01   6.59e-03
  8.0075e+01   6.29e-03
  8.2833e+01   6.01e-03
  8.5685e+01   5.74e-03
  8.8635e+01   5.48e-03
  9.1687e+01   5.24e-03
  9.4844e+01   5.00e-03
  9.8110e+01   4.77e-03
  1.0149e+02   4.55e-03
  1.0498e+02   4.34e-03
  1.0860e+02   4.13e-03
  1.1234e+02   3.94e-03
  1.1621e+02   3.75e-03
  1.2021e+02   3.57e-03
  1.2435e+02   3.40e-03
  1.2863e+02   3.24e-03
  1.3306e+02   3.08e-03
  1.3764e+02   2.93e-03
  1.4238e+02   2.78e-03
  1.4728e+02   2.64e-03
  1.5235e+02   2.51e-03
  1.5760e+02   2.38e-03
  1.6302e+02   2.26e-03
  1.6864e+02   2.14e-03
  1.7445e+02   2.03e-03
  1.8045e+02   1.93e-03
  1.8667e+02   1.82e-03
  1.9309e+02   1.73e-03
  1.9974e+02   1.63e-03
  2.0662e+02   1.55e-03
  2.1373e+02   1.46e-03
  2.2109e+02   1.38e-03
  2.2871e+02   1.30e-03
  2.3658e+02   1.23e-03
  2.4473e+02   1.16e-03
  2.5316e+02   1.09e-03
  2.6187e+02   1.03e-03
  2.7089e+02   9.67e-04
  2.8022e+02   9.10e-04
  2.8987e+02   8.55e-04
  2.9985e+02   8.03e-04
  3.1017e+02   7.53e-04
  3.2085e+02   7.06e-04
  3.3190e+02   6.62e-04
  3.4333e+02   6.19e-04
  3.5515e+02   5.79e-04
  3.6738e+02   5.42e-04
  3.8003e+02   5.06e-04
  3.9312e+02   4.72e-04
  4.0665e+02   4.40e-04
  4.2066e+02   4.10e-04
  4.3514e+02   3.82e-04
  4.5013e+02   3.56e-04
  4.6562e+02   3.31e-04
  4.8166e+02   3.08e-04
  4.9824e+02   2.86e-04
  5.1540e+02   2.65e-04
  5.3315e+02   2.46e-04
  5.5150e+02   2.28e-04
  5.7050e+02   2.12e-04
  5.9014e+02   1.96e-04
  6.1046e+02   1.82e-04
  6.3148e+02   1.68e-04
  6.5322e+02   1.56e-04
  6.7572e+02   1.44e-04
  6.9898e+02   1.33e-04
  7.2305e+02   1.23e-04
  7.4795e+02   1.14e-04
  7.7371e+02   1.06e-04
  8.0035e+02   9.79e-05
  8.2791e+02   9.07e-05
  8.5641e+02   8.40e-05
  8.8590e+02   7.78e-05
  9.1641e+02   7.21e-05
  9.4796e+02   6.69e-05
  9.8061e+02   6.21e-05
  1.0144e+03   5.77e-05
  1.0493e+03   5.36e-05
  1.0854e+03   4.98e-05
  1.1228e+03   4.63e-05
  1.1615e+03   4.31e-05
  1.2015e+03   4.02e-05
  1.2428e+03   3.75e-05
  1.2856e+03   3.49e-05
  1.3299e+03   3.26e-05
  1.3757e+03   3.05e-05
  1.4231e+03   2.85e-05
  1.4721e+03   2.67e-05
  1.5228e+03   2.50e-05
  1.5752e+03   2.34e-05
  1.6294e+03   2.20e-05
  1.6855e+03   2.06e-05
  1.7436e+03   1.94e-05
  1.8036e+03   1.82e-05
  1.8657e+03   1.72e-05
  1.9300e+03   1.62e-05
  1.9964e+03   1.52e-05
  2.0652e+03   1.43e-05
  2.1363e+03   1.35e-05
  2.2098e+03   1.28e-05
  2.2859e+03   1.20e-05
  2.3646e+03   1.13e-05
  2.4461e+03   1.07e-05
  2.5303e+03   1.01e-05
  2.6174e+03   9.54e-06
  2.7075e+03   9.00e-06
  2.8008e+03   8.49e-06
  2.8972e+03   8.01e-06
  2.9970e+03   7.55e-06
  3.1002e+03   7.12e-06
  3.2069e+03   6.71e-06
  3.3173e+03   6.32e-06
  3.4316e+03   5.94e-06
  3.5497e+03   5.59e-06
  3.6720e+03   5.25e-06
  3.7984e+03   4.93e-06
  3.9292e+03   4.62e-06
  4.0645e+03   4.33e-06
  4.2044e+03   4.05e-06
  4.3492e+03   3.78e-06
  4.4990e+03   3.52e-06
  4.6539e+03   3.27e-06
  4.8141e+03   3.04e-06
  4.9799e+03   2.81e-06
  5.1514e+03   2.60e-06
  5.3288e+03   2.39e-06
  5.5123e+03   2.20e-06
  5.7021e+03   2.01e-06
  5.8984e+03   1.84e-06
  6.1015e+03   1.67e-06
  6.3116e+03   1.52e-06
  6.5289e+03   1.37e-06
  6.7538e+03   1.23e-06
  6.9863e+03   1.10e-06
  7.2269e+03   9.84e-07
  7.4757e+03   8.72e-07
  7.7331e+03   7.68e-07
  7.9994e+03   6.73e-07
  8.2749e+03   5.85e-07
  8.5598e+03   5.05e-07
  8.8546e+03   4.33e-07
  9.1594e+03   3.68e-07
  9.4748e+03   3.09e-07
  9.8011e+03   2.57e-07
  1.0139e+04   2.12e-07
  1.0488e+04   1.72e-07
  1.0849e+04   1.38e-07
  1.1222e+04   1.10e-07
  1.1609e+04   8.54e-08
  1.2009e+04   6.54e-08
  1.2422e+04   4.92e-08
  1.2850e+04   3.62e-08
  1.3292e+04   2.61e-08
  1.3750e+04   1.83e-08
  1.4223e+04   1.25e-08
  1.4713e+04   8.30e-09
  1.5220e+04   5.32e-09
  1.5744e+04   3.29e-09
  1.6286e+04   1.95e-09
  1.6847e+04   1.10e-09
  1.7427e+04   5.91e-10
  1.8027e+04   3.00e-10
  1.8648e+04   1.42e-10
  1.9290e+04   6.29e-11
  1.9954e+04   2.56e-11
  2.0641e+04   9.50e-12
  2.1352e+04   3.17e-12
  2.2087e+04   9.39e-13
  2.2848e+04   2.43e-13
  2.3634e+04   5.42e-14
  2.4448e+04   1.01e-14
  2.5290e+04   1.55e-15
