#  E [MeV]   Flux [# cm^{-2} s^{-1}  MeV^{-1}]
  3.0000e+04   1.73e-19
  3.0943e+04   1.68e-19
  3.1916e+04   1.62e-19
  3.2920e+04   1.56e-19
  3.3955e+04   1.51e-19
  3.5023e+04   1.45e-19
  3.6124e+04   1.40e-19
  3.7260e+04   1.35e-19
  3.8432e+04   1.31e-19
  3.9640e+04   1.26e-19
  4.0887e+04   1.22e-19
  4.2172e+04   1.17e-19
  4.3499e+04   1.13e-19
  4.4866e+04   1.09e-19
  4.6277e+04   1.05e-19
  4.7732e+04   1.01e-19
  4.9233e+04   9.74e-20
  5.0781e+04   9.38e-20
  5.2378e+04   9.03e-20
  5.4025e+04   8.69e-20
  5.5724e+04   8.36e-20
  5.7476e+04   8.05e-20
  5.9284e+04   7.74e-20
  6.1148e+04   7.45e-20
  6.3071e+04   7.16e-20
  6.5054e+04   6.88e-20
  6.7100e+04   6.62e-20
  6.9210e+04   6.36e-20
  7.1386e+04   6.11e-20
  7.3631e+04   5.87e-20
  7.5946e+04   5.64e-20
  7.8334e+04   5.41e-20
  8.0797e+04   5.19e-20
  8.3338e+04   4.98e-20
  8.5959e+04   4.78e-20
  8.8662e+04   4.58e-20
  9.1450e+04   4.39e-20
  9.4325e+04   4.21e-20
  9.7291e+04   4.04e-20
  1.0035e+05   3.86e-20
  1.0351e+05   3.70e-20
  1.0676e+05   3.54e-20
  1.1012e+05   3.39e-20
  1.1358e+05   3.24e-20
  1.1715e+05   3.10e-20
  1.2084e+05   2.97e-20
  1.2464e+05   2.84e-20
  1.2856e+05   2.71e-20
  1.3260e+05   2.59e-20
  1.3677e+05   2.47e-20
  1.4107e+05   2.36e-20
  1.4550e+05   2.25e-20
  1.5008e+05   2.15e-20
  1.5480e+05   2.05e-20
  1.5967e+05   1.95e-20
  1.6469e+05   1.86e-20
  1.6987e+05   1.77e-20
  1.7521e+05   1.69e-20
  1.8072e+05   1.61e-20
  1.8640e+05   1.53e-20
  1.9226e+05   1.46e-20
  1.9831e+05   1.38e-20
  2.0454e+05   1.32e-20
  2.1097e+05   1.25e-20
  2.1761e+05   1.19e-20
  2.2445e+05   1.13e-20
  2.3151e+05   1.07e-20
  2.3879e+05   1.01e-20
  2.4630e+05   9.62e-21
  2.5404e+05   9.12e-21
  2.6203e+05   8.64e-21
  2.7027e+05   8.18e-21
  2.7877e+05   7.74e-21
  2.8753e+05   7.33e-21
  2.9657e+05   6.93e-21
  3.0590e+05   6.55e-21
  3.1552e+05   6.19e-21
  3.2544e+05   5.84e-21
  3.3567e+05   5.51e-21
  3.4623e+05   5.20e-21
  3.5712e+05   4.90e-21
  3.6835e+05   4.62e-21
  3.7993e+05   4.35e-21
  3.9188e+05   4.09e-21
  4.0420e+05   3.85e-21
  4.1691e+05   3.62e-21
  4.3002e+05   3.40e-21
  4.4354e+05   3.20e-21
  4.5749e+05   3.00e-21
  4.7187e+05   2.81e-21
  4.8671e+05   2.64e-21
  5.0202e+05   2.47e-21
  5.1780e+05   2.32e-21
  5.3409e+05   2.17e-21
  5.5088e+05   2.03e-21
  5.6820e+05   1.90e-21
  5.8607e+05   1.77e-21
  6.0450e+05   1.66e-21
  6.2351e+05   1.55e-21
  6.4311e+05   1.45e-21
  6.6334e+05   1.35e-21
  6.8419e+05   1.26e-21
  7.0571e+05   1.17e-21
  7.2790e+05   1.09e-21
  7.5079e+05   1.02e-21
  7.7440e+05   9.44e-22
  7.9875e+05   8.79e-22
  8.2387e+05   8.17e-22
  8.4977e+05   7.59e-22
  8.7649e+05   7.05e-22
  9.0405e+05   6.55e-22
  9.3248e+05   6.08e-22
  9.6180e+05   5.63e-22
  9.9205e+05   5.23e-22
  1.0232e+06   4.85e-22
  1.0554e+06   4.49e-22
  1.0886e+06   4.15e-22
  1.1228e+06   3.85e-22
  1.1581e+06   3.56e-22
  1.1946e+06   3.29e-22
  1.2321e+06   3.04e-22
  1.2709e+06   2.82e-22
  1.3108e+06   2.61e-22
  1.3521e+06   2.40e-22
  1.3946e+06   2.22e-22
  1.4384e+06   2.05e-22
  1.4837e+06   1.89e-22
  1.5303e+06   1.74e-22
  1.5784e+06   1.61e-22
  1.6281e+06   1.48e-22
  1.6793e+06   1.36e-22
  1.7321e+06   1.25e-22
  1.7865e+06   1.15e-22
  1.8427e+06   1.06e-22
  1.9006e+06   9.74e-23
  1.9604e+06   8.94e-23
  2.0221e+06   8.22e-23
  2.0856e+06   7.55e-23
  2.1512e+06   6.91e-23
  2.2189e+06   6.34e-23
  2.2886e+06   5.82e-23
  2.3606e+06   5.32e-23
  2.4348e+06   4.86e-23
  2.5114e+06   4.46e-23
  2.5904e+06   4.08e-23
  2.6718e+06   3.72e-23
  2.7558e+06   3.39e-23
  2.8425e+06   3.11e-23
  2.9319e+06   2.83e-23
  3.0241e+06   2.58e-23
  3.1192e+06   2.35e-23
  3.2173e+06   2.14e-23
  3.3184e+06   1.95e-23
  3.4228e+06   1.76e-23
  3.5304e+06   1.61e-23
  3.6414e+06   1.46e-23
  3.7559e+06   1.33e-23
  3.8740e+06   1.20e-23
  3.9958e+06   1.10e-23
  4.1215e+06   9.97e-24
  4.2511e+06   9.03e-24
  4.3848e+06   8.19e-24
  4.5227e+06   7.47e-24
  4.6649e+06   6.79e-24
  4.8116e+06   6.14e-24
  4.9629e+06   5.59e-24
  5.1189e+06   5.10e-24
  5.2799e+06   4.64e-24
  5.4459e+06   4.20e-24
  5.6171e+06   3.86e-24
  5.7938e+06   3.54e-24
  5.9760e+06   3.24e-24
  6.1639e+06   2.97e-24
  6.3577e+06   2.74e-24
  6.5576e+06   2.53e-24
  6.7638e+06   2.33e-24
  6.9765e+06   2.16e-24
  7.1959e+06   2.02e-24
  7.4222e+06   1.88e-24
  7.6556e+06   1.75e-24
  7.8963e+06   1.65e-24
  8.1446e+06   1.55e-24
  8.4007e+06   1.46e-24
  8.6649e+06   1.38e-24
  8.9373e+06   1.33e-24
  9.2184e+06   1.28e-24
  9.5082e+06   1.22e-24
  9.8072e+06   1.18e-24
  1.0116e+07   1.17e-24
  1.0434e+07   1.14e-24
  1.0762e+07   1.11e-24
  1.1100e+07   1.13e-24
  1.1449e+07   1.17e-24
  1.1809e+07   1.19e-24
  1.2181e+07   1.19e-24
  1.2564e+07   1.37e-24
  1.2959e+07   1.52e-24
  1.3366e+07   1.63e-24
  1.3786e+07   1.66e-24
  1.4220e+07   1.57e-24
