#  E [GeV]   # per interaction  [GeV^{-1}]
  3.0000e+01   2.50e-02
  3.1123e+01   2.40e-02
  3.2288e+01   2.31e-02
  3.3497e+01   2.22e-02
  3.4751e+01   2.13e-02
  3.6051e+01   2.05e-02
  3.7401e+01   1.97e-02
  3.8801e+01   1.89e-02
  4.0253e+01   1.82e-02
  4.1760e+01   1.74e-02
  4.3324e+01   1.67e-02
  4.4945e+01   1.61e-02
  4.6628e+01   1.54e-02
  4.8373e+01   1.48e-02
  5.0184e+01   1.42e-02
  5.2063e+01   1.36e-02
  5.4011e+01   1.30e-02
  5.6033e+01   1.25e-02
  5.8131e+01   1.19e-02
  6.0307e+01   1.14e-02
  6.2564e+01   1.09e-02
  6.4906e+01   1.05e-02
  6.7336e+01   1.00e-02
  6.9857e+01   9.58e-03
  7.2472e+01   9.16e-03
  7.5184e+01   8.75e-03
  7.7999e+01   8.36e-03
  8.0919e+01   7.99e-03
  8.3948e+01   7.63e-03
  8.7090e+01   7.28e-03
  9.0350e+01   6.95e-03
  9.3732e+01   6.63e-03
  9.7241e+01   6.32e-03
  1.0088e+02   6.02e-03
  1.0466e+02   5.74e-03
  1.0858e+02   5.47e-03
  1.1264e+02   5.21e-03
  1.1686e+02   4.95e-03
  1.2123e+02   4.71e-03
  1.2577e+02   4.48e-03
  1.3048e+02   4.26e-03
  1.3536e+02   4.05e-03
  1.4043e+02   3.84e-03
  1.4568e+02   3.65e-03
  1.5114e+02   3.46e-03
  1.5680e+02   3.28e-03
  1.6266e+02   3.11e-03
  1.6875e+02   2.95e-03
  1.7507e+02   2.79e-03
  1.8162e+02   2.64e-03
  1.8842e+02   2.49e-03
  1.9548e+02   2.36e-03
  2.0279e+02   2.23e-03
  2.1039e+02   2.10e-03
  2.1826e+02   1.98e-03
  2.2643e+02   1.86e-03
  2.3491e+02   1.76e-03
  2.4370e+02   1.65e-03
  2.5282e+02   1.55e-03
  2.6229e+02   1.46e-03
  2.7211e+02   1.37e-03
  2.8229e+02   1.28e-03
  2.9286e+02   1.20e-03
  3.0382e+02   1.12e-03
  3.1519e+02   1.05e-03
  3.2699e+02   9.80e-04
  3.3923e+02   9.14e-04
  3.5193e+02   8.52e-04
  3.6511e+02   7.93e-04
  3.7877e+02   7.38e-04
  3.9295e+02   6.85e-04
  4.0766e+02   6.36e-04
  4.2292e+02   5.90e-04
  4.3875e+02   5.46e-04
  4.5518e+02   5.06e-04
  4.7222e+02   4.68e-04
  4.8989e+02   4.32e-04
  5.0823e+02   3.99e-04
  5.2726e+02   3.68e-04
  5.4699e+02   3.39e-04
  5.6747e+02   3.12e-04
  5.8871e+02   2.87e-04
  6.1075e+02   2.64e-04
  6.3361e+02   2.43e-04
  6.5733e+02   2.23e-04
  6.8194e+02   2.05e-04
  7.0746e+02   1.88e-04
  7.3395e+02   1.73e-04
  7.6142e+02   1.59e-04
  7.8992e+02   1.46e-04
  8.1949e+02   1.34e-04
  8.5017e+02   1.23e-04
  8.8199e+02   1.13e-04
  9.1501e+02   1.04e-04
  9.4926e+02   9.55e-05
  9.8479e+02   8.78e-05
  1.0217e+03   8.07e-05
  1.0599e+03   7.43e-05
  1.0996e+03   6.85e-05
  1.1407e+03   6.31e-05
  1.1834e+03   5.82e-05
  1.2277e+03   5.38e-05
  1.2737e+03   4.97e-05
  1.3214e+03   4.59e-05
  1.3708e+03   4.25e-05
  1.4222e+03   3.93e-05
  1.4754e+03   3.65e-05
  1.5306e+03   3.38e-05
  1.5879e+03   3.14e-05
  1.6474e+03   2.91e-05
  1.7090e+03   2.71e-05
  1.7730e+03   2.52e-05
  1.8394e+03   2.35e-05
  1.9082e+03   2.19e-05
  1.9797e+03   2.04e-05
  2.0538e+03   1.90e-05
  2.1306e+03   1.77e-05
  2.2104e+03   1.66e-05
  2.2931e+03   1.55e-05
  2.3790e+03   1.44e-05
  2.4680e+03   1.35e-05
  2.5604e+03   1.26e-05
  2.6563e+03   1.18e-05
  2.7557e+03   1.10e-05
  2.8589e+03   1.03e-05
  2.9659e+03   9.61e-06
  3.0769e+03   8.98e-06
  3.1921e+03   8.38e-06
  3.3116e+03   7.82e-06
  3.4355e+03   7.29e-06
  3.5641e+03   6.79e-06
  3.6976e+03   6.32e-06
  3.8360e+03   5.88e-06
  3.9796e+03   5.46e-06
  4.1285e+03   5.06e-06
  4.2831e+03   4.69e-06
  4.4434e+03   4.34e-06
  4.6097e+03   4.00e-06
  4.7823e+03   3.69e-06
  4.9613e+03   3.39e-06
  5.1470e+03   3.11e-06
  5.3397e+03   2.84e-06
  5.5396e+03   2.59e-06
  5.7470e+03   2.36e-06
  5.9621e+03   2.13e-06
  6.1853e+03   1.93e-06
  6.4168e+03   1.73e-06
  6.6570e+03   1.55e-06
  6.9062e+03   1.38e-06
  7.1647e+03   1.22e-06
  7.4329e+03   1.07e-06
  7.7112e+03   9.39e-07
  7.9998e+03   8.15e-07
  8.2993e+03   7.02e-07
  8.6100e+03   6.00e-07
  8.9323e+03   5.08e-07
  9.2666e+03   4.26e-07
  9.6135e+03   3.53e-07
  9.9734e+03   2.89e-07
  1.0347e+04   2.33e-07
  1.0734e+04   1.86e-07
  1.1136e+04   1.45e-07
  1.1553e+04   1.12e-07
  1.1985e+04   8.44e-08
  1.2434e+04   6.23e-08
  1.2899e+04   4.49e-08
  1.3382e+04   3.14e-08
  1.3883e+04   2.14e-08
  1.4403e+04   1.41e-08
  1.4942e+04   8.93e-09
  1.5501e+04   5.43e-09
  1.6081e+04   3.16e-09
  1.6683e+04   1.74e-09
  1.7308e+04   9.03e-10
  1.7956e+04   4.39e-10
  1.8628e+04   1.98e-10
  1.9325e+04   8.18e-11
  2.0049e+04   3.07e-11
  2.0799e+04   1.03e-11
  2.1578e+04   3.05e-12
  2.2386e+04   7.81e-13
  2.3224e+04   1.69e-13
  2.4093e+04   3.01e-14
  2.4995e+04   4.29e-15
  2.5930e+04   4.71e-16
  2.6901e+04   3.81e-17
  2.7908e+04   2.15e-18
  2.8953e+04   8.01e-20
  3.0037e+04   1.81e-21
  3.1161e+04   2.28e-23
  3.2327e+04   1.42e-25
  3.3537e+04   3.81e-28
  3.4793e+04   3.73e-31
  3.6095e+04   1.07e-34
  3.7446e+04   6.96e-39
  3.8848e+04   7.34e-44
  4.0302e+04   1.13e-46
  4.1811e+04   1.07e-46
  4.3376e+04   1.01e-46
  4.5000e+04   9.62e-47
