#  E [MeV]   Flux [# cm^{-2} s^{-1}  MeV^{-1}]
  3.0000e+04   1.74e-24
  3.1232e+04   1.66e-24
  3.2514e+04   1.59e-24
  3.3849e+04   1.51e-24
  3.5238e+04   1.44e-24
  3.6685e+04   1.38e-24
  3.8191e+04   1.31e-24
  3.9759e+04   1.25e-24
  4.1391e+04   1.19e-24
  4.3090e+04   1.13e-24
  4.4859e+04   1.08e-24
  4.6701e+04   1.03e-24
  4.8618e+04   9.81e-25
  5.0614e+04   9.34e-25
  5.2692e+04   8.89e-25
  5.4855e+04   8.46e-25
  5.7107e+04   8.06e-25
  5.9451e+04   7.66e-25
  6.1892e+04   7.29e-25
  6.4433e+04   6.94e-25
  6.7078e+04   6.60e-25
  6.9832e+04   6.27e-25
  7.2699e+04   5.96e-25
  7.5683e+04   5.67e-25
  7.8790e+04   5.39e-25
  8.2025e+04   5.12e-25
  8.5392e+04   4.86e-25
  8.8898e+04   4.62e-25
  9.2547e+04   4.39e-25
  9.6347e+04   4.17e-25
  1.0030e+05   3.95e-25
  1.0442e+05   3.75e-25
  1.0871e+05   3.56e-25
  1.1317e+05   3.38e-25
  1.1782e+05   3.21e-25
  1.2265e+05   3.04e-25
  1.2769e+05   2.88e-25
  1.3293e+05   2.73e-25
  1.3839e+05   2.59e-25
  1.4407e+05   2.46e-25
  1.4998e+05   2.33e-25
  1.5614e+05   2.20e-25
  1.6255e+05   2.09e-25
  1.6922e+05   1.98e-25
  1.7617e+05   1.87e-25
  1.8340e+05   1.77e-25
  1.9093e+05   1.68e-25
  1.9877e+05   1.59e-25
  2.0693e+05   1.50e-25
  2.1543e+05   1.42e-25
  2.2427e+05   1.34e-25
  2.3348e+05   1.27e-25
  2.4306e+05   1.20e-25
  2.5304e+05   1.13e-25
  2.6343e+05   1.07e-25
  2.7424e+05   1.01e-25
  2.8550e+05   9.51e-26
  2.9722e+05   8.98e-26
  3.0942e+05   8.47e-26
  3.2213e+05   7.98e-26
  3.3535e+05   7.52e-26
  3.4912e+05   7.09e-26
  3.6345e+05   6.68e-26
  3.7837e+05   6.29e-26
  3.9390e+05   5.92e-26
  4.1008e+05   5.57e-26
  4.2691e+05   5.24e-26
  4.4444e+05   4.93e-26
  4.6268e+05   4.63e-26
  4.8168e+05   4.35e-26
  5.0145e+05   4.09e-26
  5.2204e+05   3.84e-26
  5.4347e+05   3.60e-26
  5.6578e+05   3.38e-26
  5.8901e+05   3.17e-26
  6.1319e+05   2.97e-26
  6.3836e+05   2.78e-26
  6.6457e+05   2.60e-26
  6.9185e+05   2.43e-26
  7.2025e+05   2.28e-26
  7.4982e+05   2.13e-26
  7.8061e+05   1.99e-26
  8.1265e+05   1.86e-26
  8.4601e+05   1.73e-26
  8.8075e+05   1.62e-26
  9.1690e+05   1.51e-26
  9.5455e+05   1.41e-26
  9.9373e+05   1.31e-26
  1.0345e+06   1.22e-26
  1.0770e+06   1.14e-26
  1.1212e+06   1.06e-26
  1.1672e+06   9.83e-27
  1.2152e+06   9.14e-27
  1.2650e+06   8.49e-27
  1.3170e+06   7.89e-27
  1.3711e+06   7.32e-27
  1.4273e+06   6.80e-27
  1.4859e+06   6.30e-27
  1.5469e+06   5.84e-27
  1.6104e+06   5.41e-27
  1.6766e+06   5.01e-27
  1.7454e+06   4.64e-27
  1.8170e+06   4.29e-27
  1.8916e+06   3.97e-27
  1.9693e+06   3.66e-27
  2.0501e+06   3.38e-27
  2.1343e+06   3.12e-27
  2.2219e+06   2.88e-27
  2.3131e+06   2.65e-27
  2.4081e+06   2.44e-27
  2.5070e+06   2.24e-27
  2.6099e+06   2.06e-27
  2.7170e+06   1.89e-27
  2.8286e+06   1.73e-27
  2.9447e+06   1.59e-27
  3.0656e+06   1.45e-27
  3.1914e+06   1.33e-27
  3.3225e+06   1.21e-27
  3.4589e+06   1.11e-27
  3.6008e+06   1.01e-27
  3.7487e+06   9.21e-28
  3.9026e+06   8.37e-28
  4.0628e+06   7.61e-28
  4.2296e+06   6.91e-28
  4.4032e+06   6.26e-28
  4.5840e+06   5.67e-28
  4.7722e+06   5.12e-28
  4.9681e+06   4.62e-28
  5.1720e+06   4.17e-28
  5.3844e+06   3.75e-28
  5.6054e+06   3.36e-28
  5.8355e+06   3.03e-28
  6.0751e+06   2.71e-28
  6.3245e+06   2.42e-28
  6.5841e+06   2.17e-28
  6.8544e+06   1.93e-28
  7.1358e+06   1.72e-28
  7.4288e+06   1.53e-28
  7.7338e+06   1.36e-28
  8.0513e+06   1.20e-28
  8.3818e+06   1.07e-28
  8.7259e+06   9.40e-29
  9.0841e+06   8.28e-29
  9.4571e+06   7.29e-29
  9.8453e+06   6.37e-29
  1.0249e+07   5.58e-29
  1.0670e+07   4.88e-29
  1.1108e+07   4.23e-29
  1.1564e+07   3.69e-29
  1.2039e+07   3.20e-29
  1.2533e+07   2.75e-29
  1.3048e+07   2.38e-29
  1.3584e+07   2.05e-29
  1.4141e+07   1.75e-29
  1.4722e+07   1.50e-29
  1.5326e+07   1.28e-29
  1.5955e+07   1.08e-29
  1.6610e+07   9.14e-30
  1.7292e+07   7.65e-30
  1.8002e+07   6.38e-30
  1.8741e+07   5.33e-30
  1.9511e+07   4.38e-30
  2.0312e+07   3.59e-30
  2.1145e+07   2.93e-30
  2.2013e+07   2.35e-30
  2.2917e+07   1.89e-30
  2.3858e+07   1.49e-30
  2.4837e+07   1.15e-30
  2.5857e+07   8.89e-31
  2.6919e+07   6.69e-31
  2.8024e+07   4.86e-31
  2.9174e+07   3.51e-31
  3.0372e+07   2.42e-31
  3.1619e+07   1.59e-31
  3.2917e+07   1.01e-31
  3.4268e+07   5.98e-32
  3.5675e+07   3.25e-32
  3.7140e+07   1.63e-32
  3.8664e+07   7.15e-33
  4.0252e+07   2.67e-33
  4.1904e+07   8.23e-34
  4.3624e+07   1.93e-34
  4.5415e+07   3.21e-35
  4.7280e+07   3.40e-36
  4.9221e+07   1.95e-37
  5.1241e+07   5.01e-39
  5.3345e+07   4.26e-41
  5.5535e+07   7.95e-44
  5.7815e+07   1.83e-47
  6.0188e+07   2.19e-52
  6.2659e+07   3.94e-59
  6.5232e+07   1.66e-68
  6.7910e+07   1.86e-71
  7.0698e+07   1.70e-71
  7.3600e+07   1.55e-71
  7.6621e+07   1.41e-71
  7.9767e+07   1.27e-71
  8.3042e+07   1.14e-71
  8.6451e+07   1.02e-71
  9.0000e+07   9.10e-72
