#  E [MeV]   Flux [# cm^{-2} s^{-1}  MeV^{-1}]
  3.0000e+04   4.75e-19
  3.1033e+04   4.55e-19
  3.2102e+04   4.36e-19
  3.3207e+04   4.18e-19
  3.4350e+04   4.00e-19
  3.5533e+04   3.83e-19
  3.6757e+04   3.67e-19
  3.8022e+04   3.52e-19
  3.9332e+04   3.37e-19
  4.0686e+04   3.22e-19
  4.2087e+04   3.08e-19
  4.3536e+04   2.95e-19
  4.5035e+04   2.82e-19
  4.6586e+04   2.70e-19
  4.8190e+04   2.59e-19
  4.9850e+04   2.47e-19
  5.1566e+04   2.37e-19
  5.3342e+04   2.26e-19
  5.5178e+04   2.16e-19
  5.7078e+04   2.07e-19
  5.9044e+04   1.98e-19
  6.1077e+04   1.89e-19
  6.3180e+04   1.81e-19
  6.5356e+04   1.73e-19
  6.7606e+04   1.65e-19
  6.9934e+04   1.58e-19
  7.2342e+04   1.51e-19
  7.4833e+04   1.44e-19
  7.7410e+04   1.38e-19
  8.0075e+04   1.31e-19
  8.2833e+04   1.25e-19
  8.5685e+04   1.20e-19
  8.8635e+04   1.14e-19
  9.1687e+04   1.09e-19
  9.4844e+04   1.04e-19
  9.8110e+04   9.95e-20
  1.0149e+05   9.50e-20
  1.0498e+05   9.06e-20
  1.0860e+05   8.65e-20
  1.1234e+05   8.25e-20
  1.1621e+05   7.87e-20
  1.2021e+05   7.50e-20
  1.2435e+05   7.16e-20
  1.2863e+05   6.82e-20
  1.3306e+05   6.51e-20
  1.3764e+05   6.20e-20
  1.4238e+05   5.91e-20
  1.4728e+05   5.63e-20
  1.5235e+05   5.37e-20
  1.5760e+05   5.11e-20
  1.6302e+05   4.87e-20
  1.6864e+05   4.64e-20
  1.7445e+05   4.41e-20
  1.8045e+05   4.20e-20
  1.8667e+05   4.00e-20
  1.9309e+05   3.80e-20
  1.9974e+05   3.61e-20
  2.0662e+05   3.44e-20
  2.1373e+05   3.27e-20
  2.2109e+05   3.10e-20
  2.2871e+05   2.95e-20
  2.3658e+05   2.80e-20
  2.4473e+05   2.66e-20
  2.5316e+05   2.52e-20
  2.6187e+05   2.39e-20
  2.7089e+05   2.26e-20
  2.8022e+05   2.14e-20
  2.8987e+05   2.03e-20
  2.9985e+05   1.92e-20
  3.1017e+05   1.82e-20
  3.2085e+05   1.72e-20
  3.3190e+05   1.62e-20
  3.4333e+05   1.53e-20
  3.5515e+05   1.45e-20
  3.6738e+05   1.36e-20
  3.8003e+05   1.29e-20
  3.9312e+05   1.21e-20
  4.0665e+05   1.14e-20
  4.2066e+05   1.08e-20
  4.3514e+05   1.02e-20
  4.5013e+05   9.56e-21
  4.6562e+05   9.01e-21
  4.8166e+05   8.48e-21
  4.9824e+05   7.98e-21
  5.1540e+05   7.51e-21
  5.3315e+05   7.06e-21
  5.5150e+05   6.64e-21
  5.7050e+05   6.24e-21
  5.9014e+05   5.86e-21
  6.1046e+05   5.50e-21
  6.3148e+05   5.16e-21
  6.5322e+05   4.84e-21
  6.7572e+05   4.53e-21
  6.9898e+05   4.24e-21
  7.2305e+05   3.97e-21
  7.4795e+05   3.71e-21
  7.7371e+05   3.47e-21
  8.0035e+05   3.24e-21
  8.2791e+05   3.03e-21
  8.5641e+05   2.82e-21
  8.8590e+05   2.63e-21
  9.1641e+05   2.45e-21
  9.4796e+05   2.29e-21
  9.8061e+05   2.13e-21
  1.0144e+06   1.98e-21
  1.0493e+06   1.84e-21
  1.0854e+06   1.71e-21
  1.1228e+06   1.59e-21
  1.1615e+06   1.47e-21
  1.2015e+06   1.36e-21
  1.2428e+06   1.26e-21
  1.2856e+06   1.17e-21
  1.3299e+06   1.08e-21
  1.3757e+06   9.97e-22
  1.4231e+06   9.20e-22
  1.4721e+06   8.49e-22
  1.5228e+06   7.82e-22
  1.5752e+06   7.19e-22
  1.6294e+06   6.62e-22
  1.6855e+06   6.08e-22
  1.7436e+06   5.57e-22
  1.8036e+06   5.11e-22
  1.8657e+06   4.68e-22
  1.9300e+06   4.28e-22
  1.9964e+06   3.91e-22
  2.0652e+06   3.57e-22
  2.1363e+06   3.26e-22
  2.2098e+06   2.96e-22
  2.2859e+06   2.70e-22
  2.3646e+06   2.45e-22
  2.4461e+06   2.22e-22
  2.5303e+06   2.01e-22
  2.6174e+06   1.83e-22
  2.7075e+06   1.65e-22
  2.8008e+06   1.48e-22
  2.8972e+06   1.34e-22
  2.9970e+06   1.21e-22
  3.1002e+06   1.08e-22
  3.2069e+06   9.70e-23
  3.3173e+06   8.71e-23
  3.4316e+06   7.78e-23
  3.5497e+06   6.93e-23
  3.6720e+06   6.21e-23
  3.7984e+06   5.53e-23
  3.9292e+06   4.89e-23
  4.0645e+06   4.36e-23
  4.2044e+06   3.88e-23
  4.3492e+06   3.42e-23
  4.4990e+06   3.02e-23
  4.6539e+06   2.68e-23
  4.8141e+06   2.36e-23
  4.9799e+06   2.06e-23
  5.1514e+06   1.82e-23
  5.3288e+06   1.60e-23
  5.5123e+06   1.39e-23
  5.7021e+06   1.22e-23
  5.8984e+06   1.07e-23
  6.1015e+06   9.25e-24
  6.3116e+06   7.99e-24
  6.5289e+06   7.00e-24
  6.7538e+06   6.08e-24
  6.9863e+06   5.20e-24
  7.2269e+06   4.53e-24
  7.4757e+06   3.93e-24
  7.7331e+06   3.37e-24
  7.9994e+06   2.89e-24
  8.2749e+06   2.51e-24
  8.5598e+06   2.15e-24
  8.8546e+06   1.82e-24
  9.1594e+06   1.58e-24
  9.4748e+06   1.36e-24
  9.8011e+06   1.15e-24
  1.0139e+07   9.90e-25
  1.0488e+07   8.54e-25
  1.0849e+07   7.28e-25
  1.1222e+07   6.16e-25
  1.1609e+07   5.35e-25
  1.2009e+07   4.60e-25
  1.2422e+07   3.89e-25
  1.2850e+07   3.38e-25
  1.3292e+07   2.93e-25
  1.3750e+07   2.51e-25
  1.4223e+07   2.16e-25
  1.4713e+07   1.89e-25
  1.5220e+07   1.63e-25
  1.5744e+07   1.40e-25
  1.6286e+07   1.23e-25
  1.6847e+07   1.08e-25
  1.7427e+07   9.38e-26
  1.8027e+07   8.20e-26
  1.8648e+07   7.18e-26
  1.9290e+07   6.23e-26
  1.9954e+07   5.38e-26
  2.0641e+07   4.65e-26
  2.1352e+07   3.98e-26
  2.2087e+07   3.37e-26
  2.2848e+07   2.83e-26
  2.3634e+07   2.34e-26
  2.4448e+07   1.91e-26
  2.5290e+07   1.55e-26
