#  E [GeV]   # per interaction  [GeV^{-1}]
  3.0000e+01   1.72e-01
  3.0589e+01   1.67e-01
  3.1190e+01   1.62e-01
  3.1803e+01   1.57e-01
  3.2428e+01   1.52e-01
  3.3065e+01   1.47e-01
  3.3714e+01   1.42e-01
  3.4376e+01   1.38e-01
  3.5052e+01   1.33e-01
  3.5740e+01   1.29e-01
  3.6442e+01   1.25e-01
  3.7158e+01   1.21e-01
  3.7888e+01   1.17e-01
  3.8632e+01   1.13e-01
  3.9391e+01   1.09e-01
  4.0165e+01   1.06e-01
  4.0954e+01   1.02e-01
  4.1758e+01   9.90e-02
  4.2579e+01   9.57e-02
  4.3415e+01   9.25e-02
  4.4268e+01   8.93e-02
  4.5138e+01   8.63e-02
  4.6024e+01   8.34e-02
  4.6928e+01   8.06e-02
  4.7850e+01   7.78e-02
  4.8790e+01   7.51e-02
  4.9749e+01   7.25e-02
  5.0726e+01   7.00e-02
  5.1722e+01   6.76e-02
  5.2738e+01   6.52e-02
  5.3774e+01   6.29e-02
  5.4831e+01   6.07e-02
  5.5908e+01   5.85e-02
  5.7006e+01   5.65e-02
  5.8126e+01   5.45e-02
  5.9268e+01   5.25e-02
  6.0432e+01   5.06e-02
  6.1619e+01   4.88e-02
  6.2829e+01   4.70e-02
  6.4064e+01   4.53e-02
  6.5322e+01   4.36e-02
  6.6605e+01   4.20e-02
  6.7913e+01   4.05e-02
  6.9248e+01   3.90e-02
  7.0608e+01   3.75e-02
  7.1995e+01   3.61e-02
  7.3409e+01   3.47e-02
  7.4851e+01   3.34e-02
  7.6321e+01   3.22e-02
  7.7821e+01   3.09e-02
  7.9349e+01   2.97e-02
  8.0908e+01   2.86e-02
  8.2497e+01   2.75e-02
  8.4118e+01   2.64e-02
  8.5770e+01   2.54e-02
  8.7455e+01   2.44e-02
  8.9173e+01   2.34e-02
  9.0925e+01   2.25e-02
  9.2711e+01   2.16e-02
  9.4532e+01   2.07e-02
  9.6389e+01   1.99e-02
  9.8283e+01   1.91e-02
  1.0021e+02   1.83e-02
  1.0218e+02   1.76e-02
  1.0419e+02   1.69e-02
  1.0624e+02   1.62e-02
  1.0832e+02   1.55e-02
  1.1045e+02   1.48e-02
  1.1262e+02   1.42e-02
  1.1483e+02   1.36e-02
  1.1709e+02   1.31e-02
  1.1939e+02   1.25e-02
  1.2173e+02   1.20e-02
  1.2412e+02   1.15e-02
  1.2656e+02   1.10e-02
  1.2905e+02   1.05e-02
  1.3158e+02   1.00e-02
  1.3417e+02   9.60e-03
  1.3680e+02   9.17e-03
  1.3949e+02   8.76e-03
  1.4223e+02   8.37e-03
  1.4503e+02   8.00e-03
  1.4787e+02   7.64e-03
  1.5078e+02   7.29e-03
  1.5374e+02   6.96e-03
  1.5676e+02   6.63e-03
  1.5984e+02   6.32e-03
  1.6298e+02   6.04e-03
  1.6618e+02   5.76e-03
  1.6945e+02   5.49e-03
  1.7278e+02   5.22e-03
  1.7617e+02   4.97e-03
  1.7963e+02   4.73e-03
  1.8316e+02   4.51e-03
  1.8676e+02   4.30e-03
  1.9042e+02   4.09e-03
  1.9417e+02   3.89e-03
  1.9798e+02   3.69e-03
  2.0187e+02   3.51e-03
  2.0583e+02   3.34e-03
  2.0988e+02   3.17e-03
  2.1400e+02   3.01e-03
  2.1820e+02   2.86e-03
  2.2249e+02   2.71e-03
  2.2686e+02   2.57e-03
  2.3132e+02   2.44e-03
  2.3586e+02   2.32e-03
  2.4049e+02   2.20e-03
  2.4522e+02   2.08e-03
  2.5004e+02   1.97e-03
  2.5495e+02   1.86e-03
  2.5996e+02   1.77e-03
  2.6506e+02   1.67e-03
  2.7027e+02   1.58e-03
  2.7558e+02   1.50e-03
  2.8099e+02   1.41e-03
  2.8651e+02   1.34e-03
  2.9214e+02   1.26e-03
  2.9788e+02   1.19e-03
  3.0373e+02   1.13e-03
  3.0970e+02   1.06e-03
  3.1578e+02   9.97e-04
  3.2198e+02   9.42e-04
  3.2831e+02   8.89e-04
  3.3476e+02   8.38e-04
  3.4133e+02   7.89e-04
  3.4804e+02   7.41e-04
  3.5487e+02   6.95e-04
  3.6185e+02   6.56e-04
  3.6895e+02   6.18e-04
  3.7620e+02   5.82e-04
  3.8359e+02   5.46e-04
  3.9113e+02   5.12e-04
  3.9881e+02   4.80e-04
  4.0664e+02   4.52e-04
  4.1463e+02   4.26e-04
  4.2278e+02   4.00e-04
  4.3108e+02   3.75e-04
  4.3955e+02   3.51e-04
  4.4818e+02   3.29e-04
  4.5699e+02   3.09e-04
  4.6596e+02   2.91e-04
  4.7512e+02   2.73e-04
  4.8445e+02   2.56e-04
  4.9397e+02   2.39e-04
  5.0367e+02   2.24e-04
  5.1356e+02   2.11e-04
  5.2365e+02   1.98e-04
  5.3394e+02   1.86e-04
  5.4443e+02   1.74e-04
  5.5512e+02   1.62e-04
  5.6603e+02   1.52e-04
  5.7715e+02   1.43e-04
  5.8848e+02   1.35e-04
  6.0004e+02   1.27e-04
  6.1183e+02   1.19e-04
  6.2385e+02   1.12e-04
  6.3610e+02   1.05e-04
  6.4860e+02   9.94e-05
  6.6134e+02   9.39e-05
  6.7433e+02   8.87e-05
  6.8758e+02   8.36e-05
  7.0108e+02   7.87e-05
  7.1486e+02   7.47e-05
  7.2890e+02   7.11e-05
  7.4322e+02   6.77e-05
  7.5782e+02   6.44e-05
  7.7270e+02   6.12e-05
  7.8788e+02   5.81e-05
  8.0336e+02   5.56e-05
  8.1914e+02   5.35e-05
  8.3523e+02   5.13e-05
  8.5164e+02   4.93e-05
  8.6837e+02   4.73e-05
  8.8542e+02   4.54e-05
  9.0282e+02   4.41e-05
  9.2055e+02   4.30e-05
  9.3863e+02   4.20e-05
  9.5707e+02   4.10e-05
  9.7587e+02   4.00e-05
  9.9504e+02   3.90e-05
  1.0146e+03   3.86e-05
  1.0345e+03   3.84e-05
  1.0548e+03   3.81e-05
  1.0756e+03   3.78e-05
  1.0967e+03   3.75e-05
  1.1182e+03   3.73e-05
  1.1402e+03   3.79e-05
  1.1626e+03   3.85e-05
  1.1854e+03   3.91e-05
  1.2087e+03   3.96e-05
  1.2325e+03   4.02e-05
  1.2567e+03   4.06e-05
  1.2814e+03   3.87e-05
  1.3065e+03   3.68e-05
  1.3322e+03   3.50e-05
  1.3584e+03   3.32e-05
  1.3851e+03   3.15e-05
  1.4123e+03   2.95e-05
  1.4400e+03   2.40e-05
