#  E [MeV]   Flux [# cm^{-2} s^{-1}  MeV^{-1}]
  3.0000e+04   5.25e-25
  3.0782e+04   5.11e-25
  3.1585e+04   4.97e-25
  3.2409e+04   4.85e-25
  3.3255e+04   4.72e-25
  3.4122e+04   4.60e-25
  3.5012e+04   4.48e-25
  3.5925e+04   4.37e-25
  3.6862e+04   4.26e-25
  3.7824e+04   4.15e-25
  3.8810e+04   4.04e-25
  3.9822e+04   3.94e-25
  4.0861e+04   3.85e-25
  4.1927e+04   3.75e-25
  4.3021e+04   3.66e-25
  4.4143e+04   3.57e-25
  4.5294e+04   3.49e-25
  4.6475e+04   3.40e-25
  4.7688e+04   3.32e-25
  4.8931e+04   3.24e-25
  5.0208e+04   3.17e-25
  5.1517e+04   3.10e-25
  5.2861e+04   3.02e-25
  5.4240e+04   2.96e-25
  5.5654e+04   2.89e-25
  5.7106e+04   2.83e-25
  5.8596e+04   2.76e-25
  6.0124e+04   2.70e-25
  6.1692e+04   2.64e-25
  6.3301e+04   2.59e-25
  6.4952e+04   2.53e-25
  6.6647e+04   2.48e-25
  6.8385e+04   2.43e-25
  7.0169e+04   2.38e-25
  7.1999e+04   2.33e-25
  7.3877e+04   2.28e-25
  7.5804e+04   2.24e-25
  7.7781e+04   2.19e-25
  7.9810e+04   2.15e-25
  8.1891e+04   2.11e-25
  8.4027e+04   2.07e-25
  8.6219e+04   2.02e-25
  8.8468e+04   1.99e-25
  9.0775e+04   1.95e-25
  9.3143e+04   1.91e-25
  9.5572e+04   1.88e-25
  9.8065e+04   1.84e-25
  1.0062e+05   1.81e-25
  1.0325e+05   1.77e-25
  1.0594e+05   1.74e-25
  1.0870e+05   1.71e-25
  1.1154e+05   1.68e-25
  1.1445e+05   1.65e-25
  1.1743e+05   1.62e-25
  1.2050e+05   1.59e-25
  1.2364e+05   1.56e-25
  1.2686e+05   1.53e-25
  1.3017e+05   1.51e-25
  1.3357e+05   1.48e-25
  1.3705e+05   1.45e-25
  1.4063e+05   1.43e-25
  1.4429e+05   1.40e-25
  1.4806e+05   1.38e-25
  1.5192e+05   1.35e-25
  1.5588e+05   1.33e-25
  1.5995e+05   1.31e-25
  1.6412e+05   1.28e-25
  1.6840e+05   1.26e-25
  1.7279e+05   1.24e-25
  1.7730e+05   1.22e-25
  1.8193e+05   1.19e-25
  1.8667e+05   1.17e-25
  1.9154e+05   1.15e-25
  1.9654e+05   1.13e-25
  2.0166e+05   1.11e-25
  2.0692e+05   1.09e-25
  2.1232e+05   1.07e-25
  2.1786e+05   1.05e-25
  2.2354e+05   1.03e-25
  2.2937e+05   1.01e-25
  2.3535e+05   9.88e-26
  2.4149e+05   9.69e-26
  2.4779e+05   9.50e-26
  2.5425e+05   9.31e-26
  2.6088e+05   9.13e-26
  2.6769e+05   8.94e-26
  2.7467e+05   8.76e-26
  2.8184e+05   8.57e-26
  2.8919e+05   8.39e-26
  2.9673e+05   8.22e-26
  3.0447e+05   8.04e-26
  3.1241e+05   7.86e-26
  3.2056e+05   7.69e-26
  3.2892e+05   7.51e-26
  3.3750e+05   7.34e-26
  3.4630e+05   7.17e-26
  3.5533e+05   7.00e-26
  3.6460e+05   6.84e-26
  3.7411e+05   6.67e-26
  3.8387e+05   6.51e-26
  3.9388e+05   6.34e-26
  4.0416e+05   6.18e-26
  4.1470e+05   6.02e-26
  4.2551e+05   5.87e-26
  4.3661e+05   5.71e-26
  4.4800e+05   5.56e-26
  4.5969e+05   5.41e-26
  4.7168e+05   5.26e-26
  4.8398e+05   5.11e-26
  4.9660e+05   4.97e-26
  5.0956e+05   4.82e-26
  5.2285e+05   4.68e-26
  5.3648e+05   4.54e-26
  5.5048e+05   4.40e-26
  5.6483e+05   4.27e-26
  5.7957e+05   4.13e-26
  5.9468e+05   4.00e-26
  6.1020e+05   3.88e-26
  6.2611e+05   3.75e-26
  6.4244e+05   3.62e-26
  6.5920e+05   3.50e-26
  6.7639e+05   3.39e-26
  6.9403e+05   3.27e-26
  7.1214e+05   3.15e-26
  7.3071e+05   3.04e-26
  7.4977e+05   2.94e-26
  7.6933e+05   2.83e-26
  7.8939e+05   2.73e-26
  8.0998e+05   2.62e-26
  8.3111e+05   2.53e-26
  8.5279e+05   2.43e-26
  8.7503e+05   2.34e-26
  8.9785e+05   2.25e-26
  9.2127e+05   2.16e-26
  9.4530e+05   2.07e-26
  9.6996e+05   1.99e-26
  9.9526e+05   1.90e-26
  1.0212e+06   1.82e-26
  1.0479e+06   1.75e-26
  1.0752e+06   1.67e-26
  1.1032e+06   1.60e-26
  1.1320e+06   1.53e-26
  1.1615e+06   1.46e-26
  1.1918e+06   1.39e-26
  1.2229e+06   1.33e-26
  1.2548e+06   1.26e-26
  1.2875e+06   1.20e-26
  1.3211e+06   1.15e-26
  1.3556e+06   1.09e-26
  1.3909e+06   1.04e-26
  1.4272e+06   9.84e-27
  1.4644e+06   9.34e-27
  1.5026e+06   8.86e-27
  1.5418e+06   8.40e-27
  1.5820e+06   7.94e-27
  1.6233e+06   7.51e-27
  1.6657e+06   7.10e-27
  1.7091e+06   6.70e-27
  1.7537e+06   6.32e-27
  1.7994e+06   5.95e-27
  1.8464e+06   5.60e-27
  1.8945e+06   5.26e-27
  1.9439e+06   4.94e-27
  1.9946e+06   4.62e-27
  2.0467e+06   4.32e-27
  2.1000e+06   4.03e-27
  2.1548e+06   3.76e-27
  2.2110e+06   3.50e-27
  2.2687e+06   3.25e-27
  2.3279e+06   3.02e-27
  2.3886e+06   2.79e-27
  2.4509e+06   2.58e-27
  2.5148e+06   2.38e-27
  2.5804e+06   2.20e-27
  2.6477e+06   2.02e-27
  2.7168e+06   1.85e-27
  2.7876e+06   1.69e-27
  2.8603e+06   1.55e-27
  2.9349e+06   1.41e-27
  3.0115e+06   1.28e-27
  3.0900e+06   1.17e-27
  3.1706e+06   1.06e-27
  3.2533e+06   9.57e-28
  3.3382e+06   8.60e-28
  3.4253e+06   7.69e-28
  3.5146e+06   6.94e-28
  3.6063e+06   6.23e-28
  3.7003e+06   5.56e-28
  3.7969e+06   4.91e-28
  3.8959e+06   4.39e-28
  3.9975e+06   3.94e-28
  4.1018e+06   3.50e-28
  4.2088e+06   3.09e-28
  4.3185e+06   2.73e-28
  4.4312e+06   2.47e-28
  4.5467e+06   2.22e-28
  4.6653e+06   1.98e-28
  4.7870e+06   1.76e-28
  4.9119e+06   1.61e-28
  5.0400e+06   1.50e-28
