#  E [MeV]   Flux [# cm^{-2} s^{-1}  MeV^{-1}]
  3.0000e+04   8.19e-20
  3.0943e+04   7.86e-20
  3.1916e+04   7.55e-20
  3.2920e+04   7.25e-20
  3.3955e+04   6.96e-20
  3.5023e+04   6.69e-20
  3.6124e+04   6.42e-20
  3.7260e+04   6.16e-20
  3.8432e+04   5.91e-20
  3.9640e+04   5.67e-20
  4.0887e+04   5.44e-20
  4.2172e+04   5.22e-20
  4.3499e+04   5.01e-20
  4.4866e+04   4.80e-20
  4.6277e+04   4.60e-20
  4.7732e+04   4.41e-20
  4.9233e+04   4.23e-20
  5.0781e+04   4.05e-20
  5.2378e+04   3.88e-20
  5.4025e+04   3.72e-20
  5.5724e+04   3.56e-20
  5.7476e+04   3.41e-20
  5.9284e+04   3.26e-20
  6.1148e+04   3.12e-20
  6.3071e+04   2.99e-20
  6.5054e+04   2.86e-20
  6.7100e+04   2.73e-20
  6.9210e+04   2.61e-20
  7.1386e+04   2.50e-20
  7.3631e+04   2.39e-20
  7.5946e+04   2.28e-20
  7.8334e+04   2.18e-20
  8.0797e+04   2.08e-20
  8.3338e+04   1.99e-20
  8.5959e+04   1.90e-20
  8.8662e+04   1.81e-20
  9.1450e+04   1.73e-20
  9.4325e+04   1.65e-20
  9.7291e+04   1.57e-20
  1.0035e+05   1.50e-20
  1.0351e+05   1.43e-20
  1.0676e+05   1.36e-20
  1.1012e+05   1.29e-20
  1.1358e+05   1.23e-20
  1.1715e+05   1.17e-20
  1.2084e+05   1.11e-20
  1.2464e+05   1.06e-20
  1.2856e+05   1.01e-20
  1.3260e+05   9.57e-21
  1.3677e+05   9.09e-21
  1.4107e+05   8.63e-21
  1.4550e+05   8.19e-21
  1.5008e+05   7.77e-21
  1.5480e+05   7.37e-21
  1.5967e+05   6.99e-21
  1.6469e+05   6.63e-21
  1.6987e+05   6.28e-21
  1.7521e+05   5.95e-21
  1.8072e+05   5.63e-21
  1.8640e+05   5.33e-21
  1.9226e+05   5.04e-21
  1.9831e+05   4.77e-21
  2.0454e+05   4.51e-21
  2.1097e+05   4.26e-21
  2.1761e+05   4.02e-21
  2.2445e+05   3.80e-21
  2.3151e+05   3.58e-21
  2.3879e+05   3.38e-21
  2.4630e+05   3.19e-21
  2.5404e+05   3.00e-21
  2.6203e+05   2.83e-21
  2.7027e+05   2.66e-21
  2.7877e+05   2.50e-21
  2.8753e+05   2.35e-21
  2.9657e+05   2.21e-21
  3.0590e+05   2.07e-21
  3.1552e+05   1.95e-21
  3.2544e+05   1.82e-21
  3.3567e+05   1.71e-21
  3.4623e+05   1.60e-21
  3.5712e+05   1.50e-21
  3.6835e+05   1.40e-21
  3.7993e+05   1.31e-21
  3.9188e+05   1.22e-21
  4.0420e+05   1.14e-21
  4.1691e+05   1.06e-21
  4.3002e+05   9.86e-22
  4.4354e+05   9.19e-22
  4.5749e+05   8.55e-22
  4.7187e+05   7.94e-22
  4.8671e+05   7.37e-22
  5.0202e+05   6.84e-22
  5.1780e+05   6.34e-22
  5.3409e+05   5.87e-22
  5.5088e+05   5.44e-22
  5.6820e+05   5.03e-22
  5.8607e+05   4.65e-22
  6.0450e+05   4.29e-22
  6.2351e+05   3.96e-22
  6.4311e+05   3.66e-22
  6.6334e+05   3.37e-22
  6.8419e+05   3.10e-22
  7.0571e+05   2.85e-22
  7.2790e+05   2.62e-22
  7.5079e+05   2.41e-22
  7.7440e+05   2.21e-22
  7.9875e+05   2.03e-22
  8.2387e+05   1.86e-22
  8.4977e+05   1.70e-22
  8.7649e+05   1.56e-22
  9.0405e+05   1.42e-22
  9.3248e+05   1.30e-22
  9.6180e+05   1.18e-22
  9.9205e+05   1.08e-22
  1.0232e+06   9.89e-23
  1.0554e+06   9.00e-23
  1.0886e+06   8.19e-23
  1.1228e+06   7.47e-23
  1.1581e+06   6.80e-23
  1.1946e+06   6.17e-23
  1.2321e+06   5.60e-23
  1.2709e+06   5.10e-23
  1.3108e+06   4.63e-23
  1.3521e+06   4.18e-23
  1.3946e+06   3.80e-23
  1.4384e+06   3.44e-23
  1.4837e+06   3.11e-23
  1.5303e+06   2.80e-23
  1.5784e+06   2.54e-23
  1.6281e+06   2.29e-23
  1.6793e+06   2.06e-23
  1.7321e+06   1.86e-23
  1.7865e+06   1.68e-23
  1.8427e+06   1.51e-23
  1.9006e+06   1.35e-23
  1.9604e+06   1.22e-23
  2.0221e+06   1.10e-23
  2.0856e+06   9.85e-24
  2.1512e+06   8.78e-24
  2.2189e+06   7.91e-24
  2.2886e+06   7.10e-24
  2.3606e+06   6.33e-24
  2.4348e+06   5.64e-24
  2.5114e+06   5.07e-24
  2.5904e+06   4.53e-24
  2.6718e+06   4.02e-24
  2.7558e+06   3.58e-24
  2.8425e+06   3.20e-24
  2.9319e+06   2.85e-24
  3.0241e+06   2.51e-24
  3.1192e+06   2.24e-24
  3.2173e+06   2.00e-24
  3.3184e+06   1.77e-24
  3.4228e+06   1.55e-24
  3.5304e+06   1.39e-24
  3.6414e+06   1.23e-24
  3.7559e+06   1.09e-24
  3.8740e+06   9.56e-25
  3.9958e+06   8.52e-25
  4.1215e+06   7.54e-25
  4.2511e+06   6.61e-25
  4.3848e+06   5.86e-25
  4.5227e+06   5.20e-25
  4.6649e+06   4.59e-25
  4.8116e+06   4.02e-25
  4.9629e+06   3.58e-25
  5.1189e+06   3.18e-25
  5.2799e+06   2.80e-25
  5.4459e+06   2.46e-25
  5.6171e+06   2.20e-25
  5.7938e+06   1.96e-25
  5.9760e+06   1.73e-25
  6.1639e+06   1.53e-25
  6.3577e+06   1.37e-25
  6.5576e+06   1.23e-25
  6.7638e+06   1.09e-25
  6.9765e+06   9.73e-26
  7.1959e+06   8.72e-26
  7.4222e+06   7.78e-26
  7.6556e+06   6.91e-26
  7.8963e+06   6.21e-26
  8.1446e+06   5.56e-26
  8.4007e+06   4.95e-26
  8.6649e+06   4.41e-26
  8.9373e+06   3.95e-26
  9.2184e+06   3.52e-26
  9.5082e+06   3.13e-26
  9.8072e+06   2.78e-26
  1.0116e+07   2.47e-26
  1.0434e+07   2.18e-26
  1.0762e+07   1.92e-26
  1.1100e+07   1.69e-26
  1.1449e+07   1.47e-26
  1.1809e+07   1.27e-26
  1.2181e+07   1.10e-26
  1.2564e+07   9.33e-27
  1.2959e+07   7.88e-27
  1.3366e+07   6.59e-27
  1.3786e+07   5.51e-27
  1.4220e+07   4.64e-27
