#  E [MeV]   Flux [# cm^{-2} s^{-1}  MeV^{-1}]
  3.0000e+04   5.64e-22
  3.1123e+04   5.42e-22
  3.2288e+04   5.22e-22
  3.3497e+04   5.02e-22
  3.4751e+04   4.82e-22
  3.6051e+04   4.63e-22
  3.7401e+04   4.45e-22
  3.8801e+04   4.28e-22
  4.0253e+04   4.11e-22
  4.1760e+04   3.95e-22
  4.3324e+04   3.79e-22
  4.4945e+04   3.63e-22
  4.6628e+04   3.49e-22
  4.8373e+04   3.35e-22
  5.0184e+04   3.21e-22
  5.2063e+04   3.08e-22
  5.4011e+04   2.95e-22
  5.6033e+04   2.83e-22
  5.8131e+04   2.71e-22
  6.0307e+04   2.60e-22
  6.2564e+04   2.49e-22
  6.4906e+04   2.38e-22
  6.7336e+04   2.28e-22
  6.9857e+04   2.18e-22
  7.2472e+04   2.09e-22
  7.5184e+04   2.00e-22
  7.7999e+04   1.91e-22
  8.0919e+04   1.82e-22
  8.3948e+04   1.74e-22
  8.7090e+04   1.66e-22
  9.0350e+04   1.59e-22
  9.3732e+04   1.52e-22
  9.7241e+04   1.45e-22
  1.0088e+05   1.38e-22
  1.0466e+05   1.32e-22
  1.0858e+05   1.26e-22
  1.1264e+05   1.20e-22
  1.1686e+05   1.14e-22
  1.2123e+05   1.09e-22
  1.2577e+05   1.04e-22
  1.3048e+05   9.86e-23
  1.3536e+05   9.38e-23
  1.4043e+05   8.92e-23
  1.4568e+05   8.49e-23
  1.5114e+05   8.07e-23
  1.5680e+05   7.67e-23
  1.6266e+05   7.28e-23
  1.6875e+05   6.91e-23
  1.7507e+05   6.56e-23
  1.8162e+05   6.22e-23
  1.8842e+05   5.90e-23
  1.9548e+05   5.59e-23
  2.0279e+05   5.30e-23
  2.1039e+05   5.01e-23
  2.1826e+05   4.74e-23
  2.2643e+05   4.49e-23
  2.3491e+05   4.24e-23
  2.4370e+05   4.01e-23
  2.5282e+05   3.78e-23
  2.6229e+05   3.57e-23
  2.7211e+05   3.37e-23
  2.8229e+05   3.17e-23
  2.9286e+05   2.99e-23
  3.0382e+05   2.81e-23
  3.1519e+05   2.65e-23
  3.2699e+05   2.49e-23
  3.3923e+05   2.34e-23
  3.5193e+05   2.20e-23
  3.6511e+05   2.06e-23
  3.7877e+05   1.93e-23
  3.9295e+05   1.81e-23
  4.0766e+05   1.70e-23
  4.2292e+05   1.59e-23
  4.3875e+05   1.49e-23
  4.5518e+05   1.39e-23
  4.7222e+05   1.30e-23
  4.8989e+05   1.21e-23
  5.0823e+05   1.13e-23
  5.2726e+05   1.06e-23
  5.4699e+05   9.86e-24
  5.6747e+05   9.19e-24
  5.8871e+05   8.56e-24
  6.1075e+05   7.97e-24
  6.3361e+05   7.42e-24
  6.5733e+05   6.90e-24
  6.8194e+05   6.42e-24
  7.0746e+05   5.97e-24
  7.3395e+05   5.55e-24
  7.6142e+05   5.16e-24
  7.8992e+05   4.80e-24
  8.1949e+05   4.47e-24
  8.5017e+05   4.15e-24
  8.8199e+05   3.86e-24
  9.1501e+05   3.59e-24
  9.4926e+05   3.34e-24
  9.8479e+05   3.11e-24
  1.0217e+06   2.90e-24
  1.0599e+06   2.69e-24
  1.0996e+06   2.51e-24
  1.1407e+06   2.34e-24
  1.1834e+06   2.18e-24
  1.2277e+06   2.03e-24
  1.2737e+06   1.89e-24
  1.3214e+06   1.77e-24
  1.3708e+06   1.65e-24
  1.4222e+06   1.54e-24
  1.4754e+06   1.44e-24
  1.5306e+06   1.35e-24
  1.5879e+06   1.26e-24
  1.6474e+06   1.18e-24
  1.7090e+06   1.10e-24
  1.7730e+06   1.03e-24
  1.8394e+06   9.69e-25
  1.9082e+06   9.08e-25
  1.9797e+06   8.52e-25
  2.0538e+06   7.99e-25
  2.1306e+06   7.50e-25
  2.2104e+06   7.05e-25
  2.2931e+06   6.62e-25
  2.3790e+06   6.22e-25
  2.4680e+06   5.84e-25
  2.5604e+06   5.49e-25
  2.6563e+06   5.16e-25
  2.7557e+06   4.86e-25
  2.8589e+06   4.57e-25
  2.9659e+06   4.30e-25
  3.0769e+06   4.04e-25
  3.1921e+06   3.80e-25
  3.3116e+06   3.57e-25
  3.4355e+06   3.36e-25
  3.5641e+06   3.16e-25
  3.6976e+06   2.97e-25
  3.8360e+06   2.79e-25
  3.9796e+06   2.62e-25
  4.1285e+06   2.46e-25
  4.2831e+06   2.30e-25
  4.4434e+06   2.16e-25
  4.6097e+06   2.02e-25
  4.7823e+06   1.89e-25
  4.9613e+06   1.77e-25
  5.1470e+06   1.65e-25
  5.3397e+06   1.54e-25
  5.5396e+06   1.44e-25
  5.7470e+06   1.34e-25
  5.9621e+06   1.24e-25
  6.1853e+06   1.15e-25
  6.4168e+06   1.07e-25
  6.6570e+06   9.86e-26
  6.9062e+06   9.08e-26
  7.1647e+06   8.35e-26
  7.4329e+06   7.65e-26
  7.7112e+06   6.99e-26
  7.9998e+06   6.36e-26
  8.2993e+06   5.76e-26
  8.6100e+06   5.20e-26
  8.9323e+06   4.68e-26
  9.2666e+06   4.19e-26
  9.6135e+06   3.73e-26
  9.9734e+06   3.30e-26
  1.0347e+07   2.90e-26
  1.0734e+07   2.53e-26
  1.1136e+07   2.19e-26
  1.1553e+07   1.88e-26
  1.1985e+07   1.60e-26
  1.2434e+07   1.34e-26
  1.2899e+07   1.12e-26
  1.3382e+07   9.17e-27
  1.3883e+07   7.41e-27
  1.4403e+07   5.90e-27
  1.4942e+07   4.61e-27
  1.5501e+07   3.53e-27
  1.6081e+07   2.64e-27
  1.6683e+07   1.92e-27
  1.7308e+07   1.36e-27
  1.7956e+07   9.35e-28
  1.8628e+07   6.18e-28
  1.9325e+07   3.92e-28
  2.0049e+07   2.36e-28
  2.0799e+07   1.35e-28
  2.1578e+07   7.24e-29
  2.2386e+07   3.61e-29
  2.3224e+07   1.65e-29
  2.4093e+07   6.86e-30
  2.4995e+07   2.54e-30
  2.5930e+07   8.22e-31
  2.6901e+07   2.27e-31
  2.7908e+07   5.20e-32
  2.8953e+07   9.55e-33
  3.0037e+07   1.34e-33
  3.1161e+07   1.38e-34
  3.2327e+07   9.64e-36
  3.3537e+07   4.24e-37
  3.4793e+07   1.06e-38
  3.6095e+07   1.32e-40
  3.7446e+07   7.04e-43
  3.8848e+07   1.29e-45
  4.0302e+07   6.31e-49
  4.1811e+07   5.77e-53
  4.3376e+07   6.36e-58
  4.5000e+07   4.67e-64
