#  E [MeV]   Flux [# cm^{-2} s^{-1}  MeV^{-1}]
  3.0000e+04   1.47e-26
  3.1141e+04   1.41e-26
  3.2326e+04   1.36e-26
  3.3556e+04   1.31e-26
  3.4832e+04   1.26e-26
  3.6157e+04   1.21e-26
  3.7533e+04   1.16e-26
  3.8961e+04   1.12e-26
  4.0443e+04   1.08e-26
  4.1982e+04   1.03e-26
  4.3579e+04   9.92e-27
  4.5237e+04   9.53e-27
  4.6958e+04   9.15e-27
  4.8744e+04   8.79e-27
  5.0598e+04   8.43e-27
  5.2523e+04   8.09e-27
  5.4521e+04   7.77e-27
  5.6596e+04   7.45e-27
  5.8749e+04   7.14e-27
  6.0984e+04   6.85e-27
  6.3304e+04   6.57e-27
  6.5712e+04   6.29e-27
  6.8212e+04   6.03e-27
  7.0807e+04   5.78e-27
  7.3500e+04   5.54e-27
  7.6297e+04   5.30e-27
  7.9199e+04   5.08e-27
  8.2212e+04   4.86e-27
  8.5340e+04   4.65e-27
  8.8586e+04   4.45e-27
  9.1956e+04   4.26e-27
  9.5455e+04   4.07e-27
  9.9086e+04   3.89e-27
  1.0286e+05   3.72e-27
  1.0677e+05   3.56e-27
  1.1083e+05   3.40e-27
  1.1505e+05   3.25e-27
  1.1942e+05   3.10e-27
  1.2397e+05   2.96e-27
  1.2868e+05   2.83e-27
  1.3358e+05   2.70e-27
  1.3866e+05   2.58e-27
  1.4394e+05   2.46e-27
  1.4941e+05   2.35e-27
  1.5509e+05   2.24e-27
  1.6100e+05   2.13e-27
  1.6712e+05   2.03e-27
  1.7348e+05   1.94e-27
  1.8008e+05   1.85e-27
  1.8693e+05   1.76e-27
  1.9404e+05   1.68e-27
  2.0142e+05   1.60e-27
  2.0908e+05   1.52e-27
  2.1704e+05   1.45e-27
  2.2529e+05   1.38e-27
  2.3387e+05   1.31e-27
  2.4276e+05   1.25e-27
  2.5200e+05   1.18e-27
  2.6158e+05   1.13e-27
  2.7154e+05   1.07e-27
  2.8187e+05   1.02e-27
  2.9259e+05   9.66e-28
  3.0372e+05   9.18e-28
  3.1527e+05   8.72e-28
  3.2727e+05   8.28e-28
  3.3972e+05   7.86e-28
  3.5264e+05   7.47e-28
  3.6606e+05   7.09e-28
  3.7998e+05   6.72e-28
  3.9444e+05   6.38e-28
  4.0945e+05   6.06e-28
  4.2502e+05   5.74e-28
  4.4119e+05   5.45e-28
  4.5798e+05   5.17e-28
  4.7540e+05   4.90e-28
  4.9348e+05   4.65e-28
  5.1226e+05   4.41e-28
  5.3175e+05   4.19e-28
  5.5198e+05   3.97e-28
  5.7297e+05   3.77e-28
  5.9477e+05   3.57e-28
  6.1740e+05   3.39e-28
  6.4089e+05   3.22e-28
  6.6527e+05   3.06e-28
  6.9058e+05   2.91e-28
  7.1685e+05   2.76e-28
  7.4412e+05   2.63e-28
  7.7243e+05   2.50e-28
  8.0181e+05   2.38e-28
  8.3232e+05   2.26e-28
  8.6398e+05   2.16e-28
  8.9685e+05   2.06e-28
  9.3097e+05   1.96e-28
  9.6638e+05   1.87e-28
  1.0031e+06   1.79e-28
  1.0413e+06   1.71e-28
  1.0809e+06   1.63e-28
  1.1220e+06   1.56e-28
  1.1647e+06   1.49e-28
  1.2090e+06   1.43e-28
  1.2550e+06   1.37e-28
  1.3028e+06   1.32e-28
  1.3523e+06   1.26e-28
  1.4038e+06   1.21e-28
  1.4572e+06   1.17e-28
  1.5126e+06   1.12e-28
  1.5702e+06   1.08e-28
  1.6299e+06   1.04e-28
  1.6919e+06   1.00e-28
  1.7563e+06   9.64e-29
  1.8231e+06   9.29e-29
  1.8925e+06   8.96e-29
  1.9645e+06   8.64e-29
  2.0392e+06   8.34e-29
  2.1168e+06   8.05e-29
  2.1973e+06   7.77e-29
  2.2809e+06   7.50e-29
  2.3677e+06   7.24e-29
  2.4577e+06   6.99e-29
  2.5512e+06   6.74e-29
  2.6483e+06   6.51e-29
  2.7490e+06   6.28e-29
  2.8536e+06   6.06e-29
  2.9622e+06   5.84e-29
  3.0749e+06   5.62e-29
  3.1918e+06   5.41e-29
  3.3133e+06   5.21e-29
  3.4393e+06   5.01e-29
  3.5702e+06   4.81e-29
  3.7060e+06   4.62e-29
  3.8470e+06   4.43e-29
  3.9933e+06   4.25e-29
  4.1452e+06   4.06e-29
  4.3029e+06   3.88e-29
  4.4666e+06   3.71e-29
  4.6366e+06   3.53e-29
  4.8129e+06   3.36e-29
  4.9960e+06   3.19e-29
  5.1861e+06   3.03e-29
  5.3834e+06   2.86e-29
  5.5882e+06   2.70e-29
  5.8008e+06   2.54e-29
  6.0215e+06   2.39e-29
  6.2506e+06   2.24e-29
  6.4883e+06   2.09e-29
  6.7352e+06   1.95e-29
  6.9914e+06   1.81e-29
  7.2574e+06   1.67e-29
  7.5335e+06   1.54e-29
  7.8201e+06   1.42e-29
  8.1176e+06   1.29e-29
  8.4264e+06   1.18e-29
  8.7470e+06   1.06e-29
  9.0797e+06   9.58e-30
  9.4251e+06   8.58e-30
  9.7837e+06   7.62e-30
  1.0156e+07   6.72e-30
  1.0542e+07   5.88e-30
  1.0943e+07   5.10e-30
  1.1360e+07   4.39e-30
  1.1792e+07   3.73e-30
  1.2240e+07   3.14e-30
  1.2706e+07   2.61e-30
  1.3189e+07   2.15e-30
  1.3691e+07   1.74e-30
  1.4212e+07   1.38e-30
  1.4753e+07   1.08e-30
  1.5314e+07   8.25e-31
  1.5897e+07   6.17e-31
  1.6501e+07   4.50e-31
  1.7129e+07   3.20e-31
  1.7781e+07   2.19e-31
  1.8457e+07   1.45e-31
  1.9159e+07   9.25e-32
  1.9888e+07   5.60e-32
  2.0645e+07   3.22e-32
  2.1430e+07   1.74e-32
  2.2245e+07   8.74e-33
  2.3092e+07   4.05e-33
  2.3970e+07   1.71e-33
  2.4882e+07   6.45e-34
  2.5829e+07   2.14e-34
  2.6811e+07   6.10e-35
  2.7831e+07   1.46e-35
  2.8890e+07   2.82e-36
  2.9989e+07   4.21e-37
  3.1130e+07   4.66e-38
  3.2314e+07   3.56e-39
  3.3544e+07   1.73e-40
  3.4820e+07   4.91e-42
  3.6144e+07   7.13e-44
  3.7519e+07   4.46e-46
  3.8947e+07   1.00e-48
  4.0428e+07   6.19e-52
  4.1966e+07   7.29e-56
  4.3563e+07   1.07e-60
  4.5220e+07   1.06e-66
  4.6941e+07   5.84e-71
  4.8726e+07   5.20e-71
  5.0580e+07   4.77e-71
