#  E [MeV]   Flux [# cm^{-2} s^{-1}  MeV^{-1}]
  3.0000e+04   7.08e-20
  3.0943e+04   6.80e-20
  3.1916e+04   6.54e-20
  3.2920e+04   6.28e-20
  3.3955e+04   6.03e-20
  3.5023e+04   5.79e-20
  3.6124e+04   5.56e-20
  3.7260e+04   5.34e-20
  3.8432e+04   5.12e-20
  3.9640e+04   4.92e-20
  4.0887e+04   4.72e-20
  4.2172e+04   4.53e-20
  4.3499e+04   4.35e-20
  4.4866e+04   4.17e-20
  4.6277e+04   4.00e-20
  4.7732e+04   3.84e-20
  4.9233e+04   3.68e-20
  5.0781e+04   3.53e-20
  5.2378e+04   3.39e-20
  5.4025e+04   3.25e-20
  5.5724e+04   3.11e-20
  5.7476e+04   2.98e-20
  5.9284e+04   2.86e-20
  6.1148e+04   2.74e-20
  6.3071e+04   2.63e-20
  6.5054e+04   2.52e-20
  6.7100e+04   2.41e-20
  6.9210e+04   2.31e-20
  7.1386e+04   2.21e-20
  7.3631e+04   2.12e-20
  7.5946e+04   2.03e-20
  7.8334e+04   1.94e-20
  8.0797e+04   1.86e-20
  8.3338e+04   1.78e-20
  8.5959e+04   1.70e-20
  8.8662e+04   1.63e-20
  9.1450e+04   1.56e-20
  9.4325e+04   1.49e-20
  9.7291e+04   1.42e-20
  1.0035e+05   1.36e-20
  1.0351e+05   1.30e-20
  1.0676e+05   1.24e-20
  1.1012e+05   1.19e-20
  1.1358e+05   1.13e-20
  1.1715e+05   1.08e-20
  1.2084e+05   1.03e-20
  1.2464e+05   9.84e-21
  1.2856e+05   9.38e-21
  1.3260e+05   8.95e-21
  1.3677e+05   8.52e-21
  1.4107e+05   8.11e-21
  1.4550e+05   7.72e-21
  1.5008e+05   7.35e-21
  1.5480e+05   6.99e-21
  1.5967e+05   6.64e-21
  1.6469e+05   6.31e-21
  1.6987e+05   5.99e-21
  1.7521e+05   5.68e-21
  1.8072e+05   5.38e-21
  1.8640e+05   5.10e-21
  1.9226e+05   4.83e-21
  1.9831e+05   4.57e-21
  2.0454e+05   4.32e-21
  2.1097e+05   4.09e-21
  2.1761e+05   3.87e-21
  2.2445e+05   3.65e-21
  2.3151e+05   3.45e-21
  2.3879e+05   3.26e-21
  2.4630e+05   3.08e-21
  2.5404e+05   2.90e-21
  2.6203e+05   2.74e-21
  2.7027e+05   2.58e-21
  2.7877e+05   2.43e-21
  2.8753e+05   2.29e-21
  2.9657e+05   2.15e-21
  3.0590e+05   2.02e-21
  3.1552e+05   1.90e-21
  3.2544e+05   1.79e-21
  3.3567e+05   1.68e-21
  3.4623e+05   1.57e-21
  3.5712e+05   1.47e-21
  3.6835e+05   1.38e-21
  3.7993e+05   1.29e-21
  3.9188e+05   1.20e-21
  4.0420e+05   1.12e-21
  4.1691e+05   1.05e-21
  4.3002e+05   9.75e-22
  4.4354e+05   9.08e-22
  4.5749e+05   8.45e-22
  4.7187e+05   7.85e-22
  4.8671e+05   7.29e-22
  5.0202e+05   6.77e-22
  5.1780e+05   6.27e-22
  5.3409e+05   5.81e-22
  5.5088e+05   5.38e-22
  5.6820e+05   4.97e-22
  5.8607e+05   4.59e-22
  6.0450e+05   4.24e-22
  6.2351e+05   3.91e-22
  6.4311e+05   3.61e-22
  6.6334e+05   3.32e-22
  6.8419e+05   3.05e-22
  7.0571e+05   2.81e-22
  7.2790e+05   2.58e-22
  7.5079e+05   2.36e-22
  7.7440e+05   2.17e-22
  7.9875e+05   1.99e-22
  8.2387e+05   1.82e-22
  8.4977e+05   1.66e-22
  8.7649e+05   1.52e-22
  9.0405e+05   1.39e-22
  9.3248e+05   1.27e-22
  9.6180e+05   1.16e-22
  9.9205e+05   1.06e-22
  1.0232e+06   9.61e-23
  1.0554e+06   8.73e-23
  1.0886e+06   7.95e-23
  1.1228e+06   7.24e-23
  1.1581e+06   6.57e-23
  1.1946e+06   5.95e-23
  1.2321e+06   5.41e-23
  1.2709e+06   4.91e-23
  1.3108e+06   4.44e-23
  1.3521e+06   4.01e-23
  1.3946e+06   3.64e-23
  1.4384e+06   3.28e-23
  1.4837e+06   2.95e-23
  1.5303e+06   2.67e-23
  1.5784e+06   2.41e-23
  1.6281e+06   2.16e-23
  1.6793e+06   1.93e-23
  1.7321e+06   1.75e-23
  1.7865e+06   1.57e-23
  1.8427e+06   1.40e-23
  1.9006e+06   1.25e-23
  1.9604e+06   1.13e-23
  2.0221e+06   1.01e-23
  2.0856e+06   8.97e-24
  2.1512e+06   8.01e-24
  2.2189e+06   7.16e-24
  2.2886e+06   6.37e-24
  2.3606e+06   5.63e-24
  2.4348e+06   5.02e-24
  2.5114e+06   4.46e-24
  2.5904e+06   3.95e-24
  2.6718e+06   3.47e-24
  2.7558e+06   3.08e-24
  2.8425e+06   2.72e-24
  2.9319e+06   2.38e-24
  3.0241e+06   2.09e-24
  3.1192e+06   1.84e-24
  3.2173e+06   1.62e-24
  3.3184e+06   1.40e-24
  3.4228e+06   1.23e-24
  3.5304e+06   1.08e-24
  3.6414e+06   9.36e-25
  3.7559e+06   8.04e-25
  3.8740e+06   7.05e-25
  3.9958e+06   6.13e-25
  4.1215e+06   5.28e-25
  4.2511e+06   4.52e-25
  4.3848e+06   3.94e-25
  4.5227e+06   3.40e-25
  4.6649e+06   2.89e-25
  4.8116e+06   2.48e-25
  4.9629e+06   2.14e-25
  5.1189e+06   1.83e-25
  5.2799e+06   1.54e-25
  5.4459e+06   1.32e-25
  5.6171e+06   1.14e-25
  5.7938e+06   9.62e-26
  5.9760e+06   8.05e-26
  6.1639e+06   6.94e-26
  6.3577e+06   5.92e-26
  6.5576e+06   4.98e-26
  6.7638e+06   4.20e-26
  6.9765e+06   3.61e-26
  7.1959e+06   3.06e-26
  7.4222e+06   2.57e-26
  7.6556e+06   2.18e-26
  7.8963e+06   1.86e-26
  8.1446e+06   1.57e-26
  8.4007e+06   1.31e-26
  8.6649e+06   1.13e-26
  8.9373e+06   9.60e-27
  9.2184e+06   8.11e-27
  9.5082e+06   6.83e-27
  9.8072e+06   5.83e-27
  1.0116e+07   4.94e-27
  1.0434e+07   4.15e-27
  1.0762e+07   3.47e-27
  1.1100e+07   2.89e-27
  1.1449e+07   2.38e-27
  1.1809e+07   1.94e-27
  1.2181e+07   1.57e-27
  1.2564e+07   1.25e-27
  1.2959e+07   9.88e-28
  1.3366e+07   7.66e-28
  1.3786e+07   5.99e-28
  1.4220e+07   4.60e-28
