#  E [MeV]   Flux [# cm^{-2} s^{-1}  MeV^{-1}]
  3.0000e+04   7.14e-22
  3.1123e+04   6.86e-22
  3.2288e+04   6.60e-22
  3.3497e+04   6.35e-22
  3.4751e+04   6.10e-22
  3.6051e+04   5.86e-22
  3.7401e+04   5.63e-22
  3.8801e+04   5.41e-22
  4.0253e+04   5.19e-22
  4.1760e+04   4.99e-22
  4.3324e+04   4.78e-22
  4.4945e+04   4.59e-22
  4.6628e+04   4.40e-22
  4.8373e+04   4.22e-22
  5.0184e+04   4.05e-22
  5.2063e+04   3.88e-22
  5.4011e+04   3.72e-22
  5.6033e+04   3.57e-22
  5.8131e+04   3.42e-22
  6.0307e+04   3.27e-22
  6.2564e+04   3.13e-22
  6.4906e+04   3.00e-22
  6.7336e+04   2.87e-22
  6.9857e+04   2.74e-22
  7.2472e+04   2.62e-22
  7.5184e+04   2.51e-22
  7.7999e+04   2.40e-22
  8.0919e+04   2.29e-22
  8.3948e+04   2.19e-22
  8.7090e+04   2.09e-22
  9.0350e+04   1.99e-22
  9.3732e+04   1.90e-22
  9.7241e+04   1.81e-22
  1.0088e+05   1.73e-22
  1.0466e+05   1.65e-22
  1.0858e+05   1.57e-22
  1.1264e+05   1.50e-22
  1.1686e+05   1.42e-22
  1.2123e+05   1.35e-22
  1.2577e+05   1.29e-22
  1.3048e+05   1.23e-22
  1.3536e+05   1.16e-22
  1.4043e+05   1.11e-22
  1.4568e+05   1.05e-22
  1.5114e+05   9.98e-23
  1.5680e+05   9.46e-23
  1.6266e+05   8.97e-23
  1.6875e+05   8.51e-23
  1.7507e+05   8.06e-23
  1.8162e+05   7.63e-23
  1.8842e+05   7.22e-23
  1.9548e+05   6.82e-23
  2.0279e+05   6.45e-23
  2.1039e+05   6.09e-23
  2.1826e+05   5.75e-23
  2.2643e+05   5.42e-23
  2.3491e+05   5.11e-23
  2.4370e+05   4.81e-23
  2.5282e+05   4.53e-23
  2.6229e+05   4.26e-23
  2.7211e+05   4.00e-23
  2.8229e+05   3.75e-23
  2.9286e+05   3.52e-23
  3.0382e+05   3.30e-23
  3.1519e+05   3.09e-23
  3.2699e+05   2.89e-23
  3.3923e+05   2.70e-23
  3.5193e+05   2.52e-23
  3.6511e+05   2.35e-23
  3.7877e+05   2.19e-23
  3.9295e+05   2.04e-23
  4.0766e+05   1.90e-23
  4.2292e+05   1.77e-23
  4.3875e+05   1.64e-23
  4.5518e+05   1.52e-23
  4.7222e+05   1.41e-23
  4.8989e+05   1.31e-23
  5.0823e+05   1.21e-23
  5.2726e+05   1.12e-23
  5.4699e+05   1.04e-23
  5.6747e+05   9.58e-24
  5.8871e+05   8.84e-24
  6.1075e+05   8.16e-24
  6.3361e+05   7.53e-24
  6.5733e+05   6.94e-24
  6.8194e+05   6.40e-24
  7.0746e+05   5.89e-24
  7.3395e+05   5.43e-24
  7.6142e+05   5.00e-24
  7.8992e+05   4.61e-24
  8.1949e+05   4.25e-24
  8.5017e+05   3.91e-24
  8.8199e+05   3.61e-24
  9.1501e+05   3.32e-24
  9.4926e+05   3.07e-24
  9.8479e+05   2.83e-24
  1.0217e+06   2.61e-24
  1.0599e+06   2.41e-24
  1.0996e+06   2.23e-24
  1.1407e+06   2.06e-24
  1.1834e+06   1.90e-24
  1.2277e+06   1.76e-24
  1.2737e+06   1.63e-24
  1.3214e+06   1.51e-24
  1.3708e+06   1.40e-24
  1.4222e+06   1.30e-24
  1.4754e+06   1.21e-24
  1.5306e+06   1.12e-24
  1.5879e+06   1.04e-24
  1.6474e+06   9.71e-25
  1.7090e+06   9.05e-25
  1.7730e+06   8.44e-25
  1.8394e+06   7.86e-25
  1.9082e+06   7.34e-25
  1.9797e+06   6.85e-25
  2.0538e+06   6.40e-25
  2.1306e+06   5.98e-25
  2.2104e+06   5.59e-25
  2.2931e+06   5.23e-25
  2.3790e+06   4.89e-25
  2.4680e+06   4.58e-25
  2.5604e+06   4.28e-25
  2.6563e+06   4.01e-25
  2.7557e+06   3.75e-25
  2.8589e+06   3.51e-25
  2.9659e+06   3.29e-25
  3.0769e+06   3.08e-25
  3.1921e+06   2.88e-25
  3.3116e+06   2.69e-25
  3.4355e+06   2.52e-25
  3.5641e+06   2.35e-25
  3.6976e+06   2.19e-25
  3.8360e+06   2.04e-25
  3.9796e+06   1.90e-25
  4.1285e+06   1.77e-25
  4.2831e+06   1.65e-25
  4.4434e+06   1.53e-25
  4.6097e+06   1.42e-25
  4.7823e+06   1.31e-25
  4.9613e+06   1.21e-25
  5.1470e+06   1.12e-25
  5.3397e+06   1.03e-25
  5.5396e+06   9.41e-26
  5.7470e+06   8.61e-26
  5.9621e+06   7.86e-26
  6.1853e+06   7.15e-26
  6.4168e+06   6.47e-26
  6.6570e+06   5.84e-26
  6.9062e+06   5.25e-26
  7.1647e+06   4.70e-26
  7.4329e+06   4.18e-26
  7.7112e+06   3.70e-26
  7.9998e+06   3.25e-26
  8.2993e+06   2.84e-26
  8.6100e+06   2.47e-26
  8.9323e+06   2.13e-26
  9.2666e+06   1.81e-26
  9.6135e+06   1.53e-26
  9.9734e+06   1.28e-26
  1.0347e+07   1.06e-26
  1.0734e+07   8.67e-27
  1.1136e+07   6.99e-27
  1.1553e+07   5.54e-27
  1.1985e+07   4.32e-27
  1.2434e+07   3.31e-27
  1.2899e+07   2.48e-27
  1.3382e+07   1.82e-27
  1.3883e+07   1.30e-27
  1.4403e+07   9.03e-28
  1.4942e+07   6.07e-28
  1.5501e+07   3.94e-28
  1.6081e+07   2.46e-28
  1.6683e+07   1.47e-28
  1.7308e+07   8.31e-29
  1.7956e+07   4.45e-29
  1.8628e+07   2.23e-29
  1.9325e+07   1.04e-29
  2.0049e+07   4.47e-30
  2.0799e+07   1.74e-30
  2.1578e+07   6.10e-31
  2.2386e+07   1.88e-31
  2.3224e+07   5.03e-32
  2.4093e+07   1.14e-32
  2.4995e+07   2.11e-33
  2.5930e+07   3.14e-34
  2.6901e+07   3.58e-35
  2.7908e+07   2.99e-36
  2.8953e+07   1.73e-37
  3.0037e+07   6.50e-39
  3.1161e+07   1.46e-40
  3.2327e+07   1.77e-42
  3.3537e+07   1.03e-44
  3.4793e+07   2.44e-47
  3.6095e+07   1.96e-50
  3.7446e+07   4.22e-54
  3.8848e+07   1.80e-58
  4.0302e+07   1.04e-63
  4.1811e+07   3.07e-66
  4.3376e+07   2.91e-66
  4.5000e+07   2.76e-66
