#  E [MeV]   Flux [# cm^{-2} s^{-1}  MeV^{-1}]
  3.0000e+04   5.31e-20
  3.0943e+04   5.10e-20
  3.1916e+04   4.90e-20
  3.2920e+04   4.71e-20
  3.3955e+04   4.52e-20
  3.5023e+04   4.34e-20
  3.6124e+04   4.17e-20
  3.7260e+04   4.00e-20
  3.8432e+04   3.84e-20
  3.9640e+04   3.69e-20
  4.0887e+04   3.54e-20
  4.2172e+04   3.40e-20
  4.3499e+04   3.26e-20
  4.4866e+04   3.13e-20
  4.6277e+04   3.00e-20
  4.7732e+04   2.88e-20
  4.9233e+04   2.76e-20
  5.0781e+04   2.65e-20
  5.2378e+04   2.54e-20
  5.4025e+04   2.44e-20
  5.5724e+04   2.34e-20
  5.7476e+04   2.24e-20
  5.9284e+04   2.15e-20
  6.1148e+04   2.06e-20
  6.3071e+04   1.97e-20
  6.5054e+04   1.89e-20
  6.7100e+04   1.81e-20
  6.9210e+04   1.74e-20
  7.1386e+04   1.66e-20
  7.3631e+04   1.59e-20
  7.5946e+04   1.53e-20
  7.8334e+04   1.46e-20
  8.0797e+04   1.40e-20
  8.3338e+04   1.34e-20
  8.5959e+04   1.28e-20
  8.8662e+04   1.23e-20
  9.1450e+04   1.17e-20
  9.4325e+04   1.12e-20
  9.7291e+04   1.07e-20
  1.0035e+05   1.03e-20
  1.0351e+05   9.81e-21
  1.0676e+05   9.38e-21
  1.1012e+05   8.96e-21
  1.1358e+05   8.56e-21
  1.1715e+05   8.17e-21
  1.2084e+05   7.80e-21
  1.2464e+05   7.44e-21
  1.2856e+05   7.10e-21
  1.3260e+05   6.77e-21
  1.3677e+05   6.45e-21
  1.4107e+05   6.15e-21
  1.4550e+05   5.86e-21
  1.5008e+05   5.58e-21
  1.5480e+05   5.31e-21
  1.5967e+05   5.05e-21
  1.6469e+05   4.80e-21
  1.6987e+05   4.56e-21
  1.7521e+05   4.33e-21
  1.8072e+05   4.11e-21
  1.8640e+05   3.89e-21
  1.9226e+05   3.69e-21
  1.9831e+05   3.50e-21
  2.0454e+05   3.31e-21
  2.1097e+05   3.13e-21
  2.1761e+05   2.97e-21
  2.2445e+05   2.81e-21
  2.3151e+05   2.66e-21
  2.3879e+05   2.51e-21
  2.4630e+05   2.37e-21
  2.5404e+05   2.24e-21
  2.6203e+05   2.12e-21
  2.7027e+05   2.00e-21
  2.7877e+05   1.89e-21
  2.8753e+05   1.78e-21
  2.9657e+05   1.68e-21
  3.0590e+05   1.58e-21
  3.1552e+05   1.49e-21
  3.2544e+05   1.40e-21
  3.3567e+05   1.32e-21
  3.4623e+05   1.24e-21
  3.5712e+05   1.16e-21
  3.6835e+05   1.09e-21
  3.7993e+05   1.02e-21
  3.9188e+05   9.59e-22
  4.0420e+05   8.98e-22
  4.1691e+05   8.40e-22
  4.3002e+05   7.86e-22
  4.4354e+05   7.34e-22
  4.5749e+05   6.85e-22
  4.7187e+05   6.39e-22
  4.8671e+05   5.96e-22
  5.0202e+05   5.55e-22
  5.1780e+05   5.17e-22
  5.3409e+05   4.80e-22
  5.5088e+05   4.46e-22
  5.6820e+05   4.15e-22
  5.8607e+05   3.85e-22
  6.0450e+05   3.56e-22
  6.2351e+05   3.30e-22
  6.4311e+05   3.06e-22
  6.6334e+05   2.83e-22
  6.8419e+05   2.61e-22
  7.0571e+05   2.41e-22
  7.2790e+05   2.23e-22
  7.5079e+05   2.05e-22
  7.7440e+05   1.89e-22
  7.9875e+05   1.74e-22
  8.2387e+05   1.60e-22
  8.4977e+05   1.47e-22
  8.7649e+05   1.35e-22
  9.0405e+05   1.24e-22
  9.3248e+05   1.14e-22
  9.6180e+05   1.04e-22
  9.9205e+05   9.53e-23
  1.0232e+06   8.72e-23
  1.0554e+06   7.96e-23
  1.0886e+06   7.27e-23
  1.1228e+06   6.64e-23
  1.1581e+06   6.06e-23
  1.1946e+06   5.51e-23
  1.2321e+06   5.02e-23
  1.2709e+06   4.58e-23
  1.3108e+06   4.16e-23
  1.3521e+06   3.77e-23
  1.3946e+06   3.42e-23
  1.4384e+06   3.11e-23
  1.4837e+06   2.81e-23
  1.5303e+06   2.53e-23
  1.5784e+06   2.30e-23
  1.6281e+06   2.07e-23
  1.6793e+06   1.86e-23
  1.7321e+06   1.68e-23
  1.7865e+06   1.52e-23
  1.8427e+06   1.36e-23
  1.9006e+06   1.22e-23
  1.9604e+06   1.10e-23
  2.0221e+06   9.86e-24
  2.0856e+06   8.81e-24
  2.1512e+06   7.84e-24
  2.2189e+06   7.04e-24
  2.2886e+06   6.30e-24
  2.3606e+06   5.59e-24
  2.4348e+06   4.97e-24
  2.5114e+06   4.44e-24
  2.5904e+06   3.95e-24
  2.6718e+06   3.48e-24
  2.7558e+06   3.09e-24
  2.8425e+06   2.74e-24
  2.9319e+06   2.41e-24
  3.0241e+06   2.11e-24
  3.1192e+06   1.87e-24
  3.2173e+06   1.65e-24
  3.3184e+06   1.44e-24
  3.4228e+06   1.25e-24
  3.5304e+06   1.11e-24
  3.6414e+06   9.69e-25
  3.7559e+06   8.39e-25
  3.8740e+06   7.30e-25
  3.9958e+06   6.40e-25
  4.1215e+06   5.56e-25
  4.2511e+06   4.77e-25
  4.3848e+06   4.16e-25
  4.5227e+06   3.62e-25
  4.6649e+06   3.11e-25
  4.8116e+06   2.65e-25
  4.9629e+06   2.31e-25
  5.1189e+06   2.00e-25
  5.2799e+06   1.70e-25
  5.4459e+06   1.45e-25
  5.6171e+06   1.26e-25
  5.7938e+06   1.08e-25
  5.9760e+06   9.14e-26
  6.1639e+06   7.84e-26
  6.3577e+06   6.78e-26
  6.5576e+06   5.79e-26
  6.7638e+06   4.88e-26
  6.9765e+06   4.23e-26
  7.1959e+06   3.65e-26
  7.4222e+06   3.11e-26
  7.6556e+06   2.64e-26
  7.8963e+06   2.29e-26
  8.1446e+06   1.97e-26
  8.4007e+06   1.68e-26
  8.6649e+06   1.44e-26
  8.9373e+06   1.26e-26
  9.2184e+06   1.09e-26
  9.5082e+06   9.29e-27
  9.8072e+06   8.07e-27
  1.0116e+07   7.01e-27
  1.0434e+07   6.05e-27
  1.0762e+07   5.18e-27
  1.1100e+07   4.45e-27
  1.1449e+07   3.80e-27
  1.1809e+07   3.21e-27
  1.2181e+07   2.69e-27
  1.2564e+07   2.24e-27
  1.2959e+07   1.85e-27
  1.3366e+07   1.50e-27
  1.3786e+07   1.22e-27
  1.4220e+07   9.95e-28
