#  E [MeV]   Flux [# cm^{-2} s^{-1}  MeV^{-1}]
  3.0000e+04   1.28e-24
  3.1051e+04   1.23e-24
  3.2139e+04   1.18e-24
  3.3266e+04   1.14e-24
  3.4432e+04   1.10e-24
  3.5638e+04   1.06e-24
  3.6887e+04   1.02e-24
  3.8180e+04   9.77e-25
  3.9518e+04   9.39e-25
  4.0903e+04   9.03e-25
  4.2336e+04   8.69e-25
  4.3820e+04   8.35e-25
  4.5355e+04   8.03e-25
  4.6945e+04   7.72e-25
  4.8590e+04   7.42e-25
  5.0293e+04   7.12e-25
  5.2055e+04   6.85e-25
  5.3879e+04   6.58e-25
  5.5767e+04   6.31e-25
  5.7722e+04   6.06e-25
  5.9745e+04   5.82e-25
  6.1838e+04   5.59e-25
  6.4005e+04   5.36e-25
  6.6248e+04   5.15e-25
  6.8570e+04   4.94e-25
  7.0973e+04   4.74e-25
  7.3460e+04   4.54e-25
  7.6034e+04   4.36e-25
  7.8699e+04   4.17e-25
  8.1457e+04   4.00e-25
  8.4311e+04   3.83e-25
  8.7266e+04   3.67e-25
  9.0324e+04   3.52e-25
  9.3490e+04   3.37e-25
  9.6766e+04   3.22e-25
  1.0016e+05   3.08e-25
  1.0367e+05   2.95e-25
  1.0730e+05   2.82e-25
  1.1106e+05   2.70e-25
  1.1495e+05   2.58e-25
  1.1898e+05   2.46e-25
  1.2315e+05   2.35e-25
  1.2747e+05   2.24e-25
  1.3193e+05   2.14e-25
  1.3656e+05   2.04e-25
  1.4134e+05   1.95e-25
  1.4629e+05   1.86e-25
  1.5142e+05   1.77e-25
  1.5673e+05   1.69e-25
  1.6222e+05   1.61e-25
  1.6790e+05   1.53e-25
  1.7379e+05   1.45e-25
  1.7988e+05   1.38e-25
  1.8618e+05   1.31e-25
  1.9271e+05   1.25e-25
  1.9946e+05   1.18e-25
  2.0645e+05   1.12e-25
  2.1369e+05   1.07e-25
  2.2117e+05   1.01e-25
  2.2892e+05   9.56e-26
  2.3695e+05   9.05e-26
  2.4525e+05   8.56e-26
  2.5385e+05   8.09e-26
  2.6274e+05   7.64e-26
  2.7195e+05   7.21e-26
  2.8148e+05   6.81e-26
  2.9134e+05   6.42e-26
  3.0155e+05   6.05e-26
  3.1212e+05   5.69e-26
  3.2306e+05   5.36e-26
  3.3438e+05   5.03e-26
  3.4610e+05   4.73e-26
  3.5823e+05   4.44e-26
  3.7078e+05   4.16e-26
  3.8377e+05   3.90e-26
  3.9722e+05   3.65e-26
  4.1114e+05   3.41e-26
  4.2555e+05   3.19e-26
  4.4046e+05   2.98e-26
  4.5590e+05   2.78e-26
  4.7188e+05   2.60e-26
  4.8841e+05   2.42e-26
  5.0553e+05   2.25e-26
  5.2324e+05   2.10e-26
  5.4158e+05   1.95e-26
  5.6056e+05   1.81e-26
  5.8020e+05   1.68e-26
  6.0054e+05   1.56e-26
  6.2158e+05   1.45e-26
  6.4337e+05   1.34e-26
  6.6591e+05   1.25e-26
  6.8925e+05   1.15e-26
  7.1340e+05   1.07e-26
  7.3840e+05   9.87e-27
  7.6428e+05   9.12e-27
  7.9106e+05   8.43e-27
  8.1878e+05   7.78e-27
  8.4748e+05   7.18e-27
  8.7718e+05   6.63e-27
  9.0792e+05   6.12e-27
  9.3973e+05   5.64e-27
  9.7267e+05   5.20e-27
  1.0068e+06   4.80e-27
  1.0420e+06   4.42e-27
  1.0785e+06   4.07e-27
  1.1163e+06   3.75e-27
  1.1555e+06   3.46e-27
  1.1960e+06   3.18e-27
  1.2379e+06   2.93e-27
  1.2813e+06   2.70e-27
  1.3262e+06   2.48e-27
  1.3726e+06   2.28e-27
  1.4207e+06   2.10e-27
  1.4705e+06   1.93e-27
  1.5220e+06   1.78e-27
  1.5754e+06   1.63e-27
  1.6306e+06   1.50e-27
  1.6877e+06   1.38e-27
  1.7469e+06   1.27e-27
  1.8081e+06   1.17e-27
  1.8715e+06   1.07e-27
  1.9370e+06   9.81e-28
  2.0049e+06   9.01e-28
  2.0752e+06   8.26e-28
  2.1479e+06   7.56e-28
  2.2232e+06   6.94e-28
  2.3011e+06   6.35e-28
  2.3817e+06   5.80e-28
  2.4652e+06   5.32e-28
  2.5516e+06   4.86e-28
  2.6410e+06   4.43e-28
  2.7336e+06   4.05e-28
  2.8294e+06   3.69e-28
  2.9285e+06   3.36e-28
  3.0311e+06   3.05e-28
  3.1374e+06   2.78e-28
  3.2473e+06   2.53e-28
  3.3611e+06   2.28e-28
  3.4789e+06   2.08e-28
  3.6008e+06   1.88e-28
  3.7270e+06   1.70e-28
  3.8576e+06   1.53e-28
  3.9928e+06   1.38e-28
  4.1327e+06   1.24e-28
  4.2775e+06   1.12e-28
  4.4274e+06   1.00e-28
  4.5826e+06   9.00e-29
  4.7432e+06   8.02e-29
  4.9094e+06   7.19e-29
  5.0815e+06   6.41e-29
  5.2595e+06   5.69e-29
  5.4438e+06   5.05e-29
  5.6346e+06   4.49e-29
  5.8321e+06   3.96e-29
  6.0365e+06   3.49e-29
  6.2480e+06   3.08e-29
  6.4670e+06   2.71e-29
  6.6936e+06   2.36e-29
  6.9282e+06   2.07e-29
  7.1709e+06   1.81e-29
  7.4222e+06   1.57e-29
  7.6823e+06   1.36e-29
  7.9516e+06   1.18e-29
  8.2302e+06   1.02e-29
  8.5186e+06   8.70e-30
  8.8172e+06   7.49e-30
  9.1262e+06   6.40e-30
  9.4460e+06   5.42e-30
  9.7770e+06   4.61e-30
  1.0120e+07   3.89e-30
  1.0474e+07   3.26e-30
  1.0841e+07   2.73e-30
  1.1221e+07   2.28e-30
  1.1614e+07   1.89e-30
  1.2022e+07   1.55e-30
  1.2443e+07   1.28e-30
  1.2879e+07   1.04e-30
  1.3330e+07   8.35e-31
  1.3797e+07   6.70e-31
  1.4281e+07   5.31e-31
  1.4781e+07   4.14e-31
  1.5299e+07   3.20e-31
  1.5835e+07   2.44e-31
  1.6390e+07   1.82e-31
  1.6965e+07   1.32e-31
  1.7559e+07   9.60e-32
  1.8175e+07   6.73e-32
  1.8812e+07   4.55e-32
  1.9471e+07   3.04e-32
  2.0153e+07   1.94e-32
  2.0859e+07   1.17e-32
  2.1590e+07   6.93e-33
  2.2347e+07   3.94e-33
  2.3130e+07   2.04e-33
  2.3941e+07   9.80e-34
  2.4780e+07   4.98e-34
  2.5648e+07   2.09e-34
  2.6547e+07   7.29e-35
  2.7477e+07   2.16e-35
  2.8440e+07   5.12e-36
