#  E [MeV]   Flux [# cm^{-2} s^{-1}  MeV^{-1}]
  3.0000e+04   5.83e-19
  3.0589e+04   5.64e-19
  3.1190e+04   5.46e-19
  3.1803e+04   5.29e-19
  3.2428e+04   5.12e-19
  3.3065e+04   4.96e-19
  3.3714e+04   4.80e-19
  3.4376e+04   4.64e-19
  3.5052e+04   4.49e-19
  3.5740e+04   4.34e-19
  3.6442e+04   4.20e-19
  3.7158e+04   4.06e-19
  3.7888e+04   3.93e-19
  3.8632e+04   3.79e-19
  3.9391e+04   3.67e-19
  4.0165e+04   3.54e-19
  4.0954e+04   3.42e-19
  4.1758e+04   3.31e-19
  4.2579e+04   3.19e-19
  4.3415e+04   3.08e-19
  4.4268e+04   2.98e-19
  4.5138e+04   2.87e-19
  4.6024e+04   2.77e-19
  4.6928e+04   2.68e-19
  4.7850e+04   2.58e-19
  4.8790e+04   2.49e-19
  4.9749e+04   2.40e-19
  5.0726e+04   2.32e-19
  5.1722e+04   2.23e-19
  5.2738e+04   2.15e-19
  5.3774e+04   2.08e-19
  5.4831e+04   2.00e-19
  5.5908e+04   1.93e-19
  5.7006e+04   1.86e-19
  5.8126e+04   1.79e-19
  5.9268e+04   1.72e-19
  6.0432e+04   1.66e-19
  6.1619e+04   1.60e-19
  6.2829e+04   1.54e-19
  6.4064e+04   1.48e-19
  6.5322e+04   1.42e-19
  6.6605e+04   1.37e-19
  6.7913e+04   1.32e-19
  6.9248e+04   1.26e-19
  7.0608e+04   1.22e-19
  7.1995e+04   1.17e-19
  7.3409e+04   1.12e-19
  7.4851e+04   1.08e-19
  7.6321e+04   1.04e-19
  7.7821e+04   9.95e-20
  7.9349e+04   9.55e-20
  8.0908e+04   9.17e-20
  8.2497e+04   8.80e-20
  8.4118e+04   8.44e-20
  8.5770e+04   8.10e-20
  8.7455e+04   7.76e-20
  8.9173e+04   7.44e-20
  9.0925e+04   7.14e-20
  9.2711e+04   6.84e-20
  9.4532e+04   6.56e-20
  9.6389e+04   6.28e-20
  9.8283e+04   6.01e-20
  1.0021e+05   5.76e-20
  1.0218e+05   5.51e-20
  1.0419e+05   5.28e-20
  1.0624e+05   5.05e-20
  1.0832e+05   4.83e-20
  1.1045e+05   4.62e-20
  1.1262e+05   4.41e-20
  1.1483e+05   4.22e-20
  1.1709e+05   4.04e-20
  1.1939e+05   3.86e-20
  1.2173e+05   3.68e-20
  1.2412e+05   3.51e-20
  1.2656e+05   3.36e-20
  1.2905e+05   3.21e-20
  1.3158e+05   3.06e-20
  1.3417e+05   2.92e-20
  1.3680e+05   2.78e-20
  1.3949e+05   2.65e-20
  1.4223e+05   2.53e-20
  1.4503e+05   2.41e-20
  1.4787e+05   2.30e-20
  1.5078e+05   2.19e-20
  1.5374e+05   2.08e-20
  1.5676e+05   1.98e-20
  1.5984e+05   1.88e-20
  1.6298e+05   1.79e-20
  1.6618e+05   1.70e-20
  1.6945e+05   1.62e-20
  1.7278e+05   1.54e-20
  1.7617e+05   1.46e-20
  1.7963e+05   1.38e-20
  1.8316e+05   1.32e-20
  1.8676e+05   1.25e-20
  1.9042e+05   1.18e-20
  1.9417e+05   1.12e-20
  1.9798e+05   1.06e-20
  2.0187e+05   1.01e-20
  2.0583e+05   9.56e-21
  2.0988e+05   9.05e-21
  2.1400e+05   8.56e-21
  2.1820e+05   8.09e-21
  2.2249e+05   7.64e-21
  2.2686e+05   7.24e-21
  2.3132e+05   6.85e-21
  2.3586e+05   6.48e-21
  2.4049e+05   6.11e-21
  2.4522e+05   5.76e-21
  2.5004e+05   5.43e-21
  2.5495e+05   5.13e-21
  2.5996e+05   4.85e-21
  2.6506e+05   4.57e-21
  2.7027e+05   4.30e-21
  2.7558e+05   4.04e-21
  2.8099e+05   3.80e-21
  2.8651e+05   3.58e-21
  2.9214e+05   3.37e-21
  2.9788e+05   3.17e-21
  3.0373e+05   2.97e-21
  3.0970e+05   2.78e-21
  3.1578e+05   2.60e-21
  3.2198e+05   2.45e-21
  3.2831e+05   2.30e-21
  3.3476e+05   2.15e-21
  3.4133e+05   2.01e-21
  3.4804e+05   1.88e-21
  3.5487e+05   1.75e-21
  3.6185e+05   1.64e-21
  3.6895e+05   1.54e-21
  3.7620e+05   1.44e-21
  3.8359e+05   1.34e-21
  3.9113e+05   1.24e-21
  3.9881e+05   1.16e-21
  4.0664e+05   1.08e-21
  4.1463e+05   1.01e-21
  4.2278e+05   9.40e-22
  4.3108e+05   8.72e-22
  4.3955e+05   8.06e-22
  4.4818e+05   7.49e-22
  4.5699e+05   6.98e-22
  4.6596e+05   6.48e-22
  4.7512e+05   6.00e-22
  4.8445e+05   5.54e-22
  4.9397e+05   5.10e-22
  5.0367e+05   4.73e-22
  5.1356e+05   4.39e-22
  5.2365e+05   4.06e-22
  5.3394e+05   3.75e-22
  5.4443e+05   3.44e-22
  5.5512e+05   3.15e-22
  5.6603e+05   2.91e-22
  5.7715e+05   2.69e-22
  5.8848e+05   2.48e-22
  6.0004e+05   2.27e-22
  6.1183e+05   2.07e-22
  6.2385e+05   1.88e-22
  6.3610e+05   1.73e-22
  6.4860e+05   1.59e-22
  6.6134e+05   1.46e-22
  6.7433e+05   1.33e-22
  6.8758e+05   1.21e-22
  7.0108e+05   1.09e-22
  7.1486e+05   1.00e-22
  7.2890e+05   9.19e-23
  7.4322e+05   8.38e-23
  7.5782e+05   7.60e-23
  7.7270e+05   6.86e-23
  7.8788e+05   6.14e-23
  8.0336e+05   5.63e-23
  8.1914e+05   5.14e-23
  8.3523e+05   4.67e-23
  8.5164e+05   4.21e-23
  8.6837e+05   3.78e-23
  8.8542e+05   3.37e-23
  9.0282e+05   3.08e-23
  9.2055e+05   2.80e-23
  9.3863e+05   2.53e-23
  9.5707e+05   2.27e-23
  9.7587e+05   2.02e-23
  9.9504e+05   1.79e-23
  1.0146e+06   1.63e-23
  1.0345e+06   1.47e-23
  1.0548e+06   1.32e-23
  1.0756e+06   1.18e-23
  1.0967e+06   1.04e-23
  1.1182e+06   9.18e-24
  1.1402e+06   8.29e-24
  1.1626e+06   7.44e-24
  1.1854e+06   6.62e-24
  1.2087e+06   5.83e-24
  1.2325e+06   5.07e-24
  1.2567e+06   4.42e-24
  1.2814e+06   3.94e-24
  1.3065e+06   3.49e-24
  1.3322e+06   3.04e-24
  1.3584e+06   2.62e-24
  1.3851e+06   2.21e-24
  1.4123e+06   1.91e-24
  1.4400e+06   1.71e-24
