#  E [MeV]   Flux [# cm^{-2} s^{-1}  MeV^{-1}]
  3.0000e+04   1.62e-25
  3.1232e+04   1.55e-25
  3.2514e+04   1.48e-25
  3.3849e+04   1.41e-25
  3.5238e+04   1.34e-25
  3.6685e+04   1.28e-25
  3.8191e+04   1.22e-25
  3.9759e+04   1.16e-25
  4.1391e+04   1.11e-25
  4.3090e+04   1.06e-25
  4.4859e+04   1.01e-25
  4.6701e+04   9.58e-26
  4.8618e+04   9.12e-26
  5.0614e+04   8.68e-26
  5.2692e+04   8.26e-26
  5.4855e+04   7.86e-26
  5.7107e+04   7.48e-26
  5.9451e+04   7.11e-26
  6.1892e+04   6.77e-26
  6.4433e+04   6.43e-26
  6.7078e+04   6.11e-26
  6.9832e+04   5.81e-26
  7.2699e+04   5.52e-26
  7.5683e+04   5.25e-26
  7.8790e+04   4.98e-26
  8.2025e+04   4.73e-26
  8.5392e+04   4.49e-26
  8.8898e+04   4.26e-26
  9.2547e+04   4.04e-26
  9.6347e+04   3.84e-26
  1.0030e+05   3.64e-26
  1.0442e+05   3.45e-26
  1.0871e+05   3.27e-26
  1.1317e+05   3.10e-26
  1.1782e+05   2.94e-26
  1.2265e+05   2.78e-26
  1.2769e+05   2.64e-26
  1.3293e+05   2.50e-26
  1.3839e+05   2.36e-26
  1.4407e+05   2.24e-26
  1.4998e+05   2.11e-26
  1.5614e+05   2.00e-26
  1.6255e+05   1.89e-26
  1.6922e+05   1.78e-26
  1.7617e+05   1.69e-26
  1.8340e+05   1.59e-26
  1.9093e+05   1.50e-26
  1.9877e+05   1.42e-26
  2.0693e+05   1.33e-26
  2.1543e+05   1.26e-26
  2.2427e+05   1.18e-26
  2.3348e+05   1.11e-26
  2.4306e+05   1.05e-26
  2.5304e+05   9.86e-27
  2.6343e+05   9.26e-27
  2.7424e+05   8.69e-27
  2.8550e+05   8.16e-27
  2.9722e+05   7.65e-27
  3.0942e+05   7.17e-27
  3.2213e+05   6.71e-27
  3.3535e+05   6.28e-27
  3.4912e+05   5.87e-27
  3.6345e+05   5.48e-27
  3.7837e+05   5.12e-27
  3.9390e+05   4.77e-27
  4.1008e+05   4.45e-27
  4.2691e+05   4.14e-27
  4.4444e+05   3.85e-27
  4.6268e+05   3.58e-27
  4.8168e+05   3.33e-27
  5.0145e+05   3.09e-27
  5.2204e+05   2.86e-27
  5.4347e+05   2.65e-27
  5.6578e+05   2.46e-27
  5.8901e+05   2.27e-27
  6.1319e+05   2.10e-27
  6.3836e+05   1.94e-27
  6.6457e+05   1.79e-27
  6.9185e+05   1.65e-27
  7.2025e+05   1.52e-27
  7.4982e+05   1.40e-27
  7.8061e+05   1.29e-27
  8.1265e+05   1.19e-27
  8.4601e+05   1.10e-27
  8.8075e+05   1.01e-27
  9.1690e+05   9.27e-28
  9.5455e+05   8.52e-28
  9.9373e+05   7.84e-28
  1.0345e+06   7.20e-28
  1.0770e+06   6.62e-28
  1.1212e+06   6.08e-28
  1.1672e+06   5.58e-28
  1.2152e+06   5.13e-28
  1.2650e+06   4.71e-28
  1.3170e+06   4.33e-28
  1.3711e+06   3.97e-28
  1.4273e+06   3.65e-28
  1.4859e+06   3.35e-28
  1.5469e+06   3.07e-28
  1.6104e+06   2.82e-28
  1.6766e+06   2.59e-28
  1.7454e+06   2.37e-28
  1.8170e+06   2.18e-28
  1.8916e+06   1.99e-28
  1.9693e+06   1.83e-28
  2.0501e+06   1.67e-28
  2.1343e+06   1.53e-28
  2.2219e+06   1.40e-28
  2.3131e+06   1.28e-28
  2.4081e+06   1.17e-28
  2.5070e+06   1.07e-28
  2.6099e+06   9.71e-29
  2.7170e+06   8.84e-29
  2.8286e+06   8.05e-29
  2.9447e+06   7.31e-29
  3.0656e+06   6.63e-29
  3.1914e+06   6.01e-29
  3.3225e+06   5.44e-29
  3.4589e+06   4.91e-29
  3.6008e+06   4.43e-29
  3.7487e+06   3.99e-29
  3.9026e+06   3.59e-29
  4.0628e+06   3.22e-29
  4.2296e+06   2.88e-29
  4.4032e+06   2.57e-29
  4.5840e+06   2.29e-29
  4.7722e+06   2.03e-29
  4.9681e+06   1.81e-29
  5.1720e+06   1.60e-29
  5.3844e+06   1.40e-29
  5.6054e+06   1.24e-29
  5.8355e+06   1.08e-29
  6.0751e+06   9.44e-30
  6.3245e+06   8.23e-30
  6.5841e+06   7.13e-30
  6.8544e+06   6.14e-30
  7.1358e+06   5.29e-30
  7.4288e+06   4.52e-30
  7.7338e+06   3.84e-30
  8.0513e+06   3.26e-30
  8.3818e+06   2.74e-30
  8.7259e+06   2.29e-30
  9.0841e+06   1.91e-30
  9.4571e+06   1.57e-30
  9.8453e+06   1.28e-30
  1.0249e+07   1.04e-30
  1.0670e+07   8.34e-31
  1.1108e+07   6.67e-31
  1.1564e+07   5.25e-31
  1.2039e+07   4.06e-31
  1.2533e+07   3.14e-31
  1.3048e+07   2.37e-31
  1.3584e+07   1.75e-31
  1.4141e+07   1.29e-31
  1.4722e+07   9.22e-32
  1.5326e+07   6.42e-32
  1.5955e+07   4.40e-32
  1.6610e+07   2.90e-32
  1.7292e+07   1.86e-32
  1.8002e+07   1.15e-32
  1.8741e+07   6.75e-33
  1.9511e+07   3.80e-33
  2.0312e+07   2.03e-33
  2.1145e+07   1.00e-33
  2.2013e+07   4.62e-34
  2.2917e+07   1.95e-34
  2.3858e+07   7.31e-35
  2.4837e+07   2.46e-35
  2.5857e+07   7.09e-36
  2.6919e+07   1.69e-36
  2.8024e+07   3.32e-37
  2.9174e+07   4.99e-38
  3.0372e+07   5.45e-39
  3.1619e+07   4.12e-40
  3.2917e+07   1.93e-41
  3.4268e+07   5.01e-43
  3.5675e+07   6.38e-45
  3.7140e+07   3.22e-47
  3.8664e+07   5.09e-50
  4.0252e+07   1.84e-53
  4.1904e+07   9.83e-58
  4.3624e+07   4.40e-63
  4.5415e+07   7.63e-70
  4.7280e+07   3.83e-72
  4.9221e+07   3.47e-72
  5.1241e+07   3.15e-72
  5.3345e+07   2.85e-72
  5.5535e+07   2.60e-72
  5.7815e+07   2.38e-72
  6.0188e+07   2.16e-72
  6.2659e+07   1.98e-72
  6.5232e+07   1.82e-72
  6.7910e+07   1.66e-72
  7.0698e+07   1.51e-72
  7.3600e+07   1.37e-72
  7.6621e+07   1.24e-72
  7.9767e+07   1.11e-72
  8.3042e+07   9.91e-73
  8.6451e+07   8.88e-73
  9.0000e+07   8.06e-73
