#  E [MeV]   Flux [# cm^{-2} s^{-1}  MeV^{-1}]
  3.0000e+04   8.61e-25
  3.1051e+04   8.30e-25
  3.2139e+04   7.99e-25
  3.3266e+04   7.70e-25
  3.4432e+04   7.42e-25
  3.5638e+04   7.15e-25
  3.6887e+04   6.88e-25
  3.8180e+04   6.63e-25
  3.9518e+04   6.38e-25
  4.0903e+04   6.14e-25
  4.2336e+04   5.92e-25
  4.3820e+04   5.69e-25
  4.5355e+04   5.48e-25
  4.6945e+04   5.27e-25
  4.8590e+04   5.07e-25
  5.0293e+04   4.88e-25
  5.2055e+04   4.69e-25
  5.3879e+04   4.51e-25
  5.5767e+04   4.34e-25
  5.7722e+04   4.17e-25
  5.9745e+04   4.01e-25
  6.1838e+04   3.85e-25
  6.4005e+04   3.70e-25
  6.6248e+04   3.55e-25
  6.8570e+04   3.41e-25
  7.0973e+04   3.28e-25
  7.3460e+04   3.15e-25
  7.6034e+04   3.02e-25
  7.8699e+04   2.90e-25
  8.1457e+04   2.78e-25
  8.4311e+04   2.67e-25
  8.7266e+04   2.56e-25
  9.0324e+04   2.45e-25
  9.3490e+04   2.35e-25
  9.6766e+04   2.25e-25
  1.0016e+05   2.15e-25
  1.0367e+05   2.06e-25
  1.0730e+05   1.97e-25
  1.1106e+05   1.89e-25
  1.1495e+05   1.81e-25
  1.1898e+05   1.73e-25
  1.2315e+05   1.65e-25
  1.2747e+05   1.58e-25
  1.3193e+05   1.51e-25
  1.3656e+05   1.44e-25
  1.4134e+05   1.37e-25
  1.4629e+05   1.31e-25
  1.5142e+05   1.25e-25
  1.5673e+05   1.19e-25
  1.6222e+05   1.13e-25
  1.6790e+05   1.08e-25
  1.7379e+05   1.03e-25
  1.7988e+05   9.77e-26
  1.8618e+05   9.28e-26
  1.9271e+05   8.82e-26
  1.9946e+05   8.37e-26
  2.0645e+05   7.95e-26
  2.1369e+05   7.54e-26
  2.2117e+05   7.15e-26
  2.2892e+05   6.77e-26
  2.3695e+05   6.41e-26
  2.4525e+05   6.06e-26
  2.5385e+05   5.73e-26
  2.6274e+05   5.41e-26
  2.7195e+05   5.11e-26
  2.8148e+05   4.82e-26
  2.9134e+05   4.55e-26
  3.0155e+05   4.28e-26
  3.1212e+05   4.03e-26
  3.2306e+05   3.79e-26
  3.3438e+05   3.56e-26
  3.4610e+05   3.34e-26
  3.5823e+05   3.14e-26
  3.7078e+05   2.94e-26
  3.8377e+05   2.75e-26
  3.9722e+05   2.58e-26
  4.1114e+05   2.41e-26
  4.2555e+05   2.25e-26
  4.4046e+05   2.10e-26
  4.5590e+05   1.96e-26
  4.7188e+05   1.82e-26
  4.8841e+05   1.70e-26
  5.0553e+05   1.58e-26
  5.2324e+05   1.47e-26
  5.4158e+05   1.37e-26
  5.6056e+05   1.27e-26
  5.8020e+05   1.18e-26
  6.0054e+05   1.09e-26
  6.2158e+05   1.01e-26
  6.4337e+05   9.35e-27
  6.6591e+05   8.65e-27
  6.8925e+05   8.00e-27
  7.1340e+05   7.39e-27
  7.3840e+05   6.83e-27
  7.6428e+05   6.30e-27
  7.9106e+05   5.82e-27
  8.1878e+05   5.36e-27
  8.4748e+05   4.94e-27
  8.7718e+05   4.56e-27
  9.0792e+05   4.20e-27
  9.3973e+05   3.86e-27
  9.7267e+05   3.56e-27
  1.0068e+06   3.28e-27
  1.0420e+06   3.01e-27
  1.0785e+06   2.77e-27
  1.1163e+06   2.55e-27
  1.1555e+06   2.35e-27
  1.1960e+06   2.16e-27
  1.2379e+06   1.98e-27
  1.2813e+06   1.82e-27
  1.3262e+06   1.68e-27
  1.3726e+06   1.54e-27
  1.4207e+06   1.42e-27
  1.4705e+06   1.30e-27
  1.5220e+06   1.19e-27
  1.5754e+06   1.10e-27
  1.6306e+06   1.01e-27
  1.6877e+06   9.22e-28
  1.7469e+06   8.47e-28
  1.8081e+06   7.76e-28
  1.8715e+06   7.11e-28
  1.9370e+06   6.52e-28
  2.0049e+06   5.97e-28
  2.0752e+06   5.46e-28
  2.1479e+06   5.00e-28
  2.2232e+06   4.57e-28
  2.3011e+06   4.18e-28
  2.3817e+06   3.81e-28
  2.4652e+06   3.48e-28
  2.5516e+06   3.17e-28
  2.6410e+06   2.89e-28
  2.7336e+06   2.63e-28
  2.8294e+06   2.39e-28
  2.9285e+06   2.17e-28
  3.0311e+06   1.96e-28
  3.1374e+06   1.78e-28
  3.2473e+06   1.61e-28
  3.3611e+06   1.45e-28
  3.4789e+06   1.31e-28
  3.6008e+06   1.18e-28
  3.7270e+06   1.06e-28
  3.8576e+06   9.52e-29
  3.9928e+06   8.54e-29
  4.1327e+06   7.62e-29
  4.2775e+06   6.80e-29
  4.4274e+06   6.07e-29
  4.5826e+06   5.39e-29
  4.7432e+06   4.76e-29
  4.9094e+06   4.23e-29
  5.0815e+06   3.73e-29
  5.2595e+06   3.27e-29
  5.4438e+06   2.87e-29
  5.6346e+06   2.51e-29
  5.8321e+06   2.18e-29
  6.0365e+06   1.89e-29
  6.2480e+06   1.64e-29
  6.4670e+06   1.41e-29
  6.6936e+06   1.21e-29
  6.9282e+06   1.04e-29
  7.1709e+06   8.84e-30
  7.4222e+06   7.45e-30
  7.6823e+06   6.29e-30
  7.9516e+06   5.29e-30
  8.2302e+06   4.39e-30
  8.5186e+06   3.63e-30
  8.8172e+06   3.01e-30
  9.1262e+06   2.46e-30
  9.4460e+06   1.98e-30
  9.7770e+06   1.61e-30
  1.0120e+07   1.28e-30
  1.0474e+07   1.01e-30
  1.0841e+07   7.93e-31
  1.1221e+07   6.18e-31
  1.1614e+07   4.71e-31
  1.2022e+07   3.55e-31
  1.2443e+07   2.67e-31
  1.2879e+07   1.96e-31
  1.3330e+07   1.40e-31
  1.3797e+07   1.01e-31
  1.4281e+07   7.08e-32
  1.4781e+07   4.80e-32
  1.5299e+07   3.22e-32
  1.5835e+07   2.12e-32
  1.6390e+07   1.34e-32
  1.6965e+07   8.20e-33
  1.7559e+07   4.96e-33
  1.8175e+07   2.84e-33
  1.8812e+07   1.53e-33
  1.9471e+07   8.16e-34
  2.0153e+07   4.07e-34
  2.0859e+07   1.87e-34
  2.1590e+07   8.11e-35
  2.2347e+07   3.27e-35
  2.3130e+07   1.17e-35
  2.3941e+07   3.75e-36
  2.4780e+07   1.08e-36
  2.5648e+07   2.64e-37
  2.6547e+07   5.23e-38
  2.7477e+07   8.90e-39
  2.8440e+07   1.16e-39
