#  E [MeV]   Flux [# cm^{-2} s^{-1}  MeV^{-1}]
  3.0000e+04   1.39e-20
  3.1123e+04   1.34e-20
  3.2288e+04   1.29e-20
  3.3497e+04   1.23e-20
  3.4751e+04   1.19e-20
  3.6051e+04   1.14e-20
  3.7401e+04   1.09e-20
  3.8801e+04   1.05e-20
  4.0253e+04   1.01e-20
  4.1760e+04   9.69e-21
  4.3324e+04   9.31e-21
  4.4945e+04   8.93e-21
  4.6628e+04   8.58e-21
  4.8373e+04   8.23e-21
  5.0184e+04   7.90e-21
  5.2063e+04   7.58e-21
  5.4011e+04   7.28e-21
  5.6033e+04   6.98e-21
  5.8131e+04   6.70e-21
  6.0307e+04   6.43e-21
  6.2564e+04   6.16e-21
  6.4906e+04   5.91e-21
  6.7336e+04   5.67e-21
  6.9857e+04   5.43e-21
  7.2472e+04   5.21e-21
  7.5184e+04   4.99e-21
  7.7999e+04   4.78e-21
  8.0919e+04   4.58e-21
  8.3948e+04   4.39e-21
  8.7090e+04   4.20e-21
  9.0350e+04   4.02e-21
  9.3732e+04   3.85e-21
  9.7241e+04   3.68e-21
  1.0088e+05   3.52e-21
  1.0466e+05   3.37e-21
  1.0858e+05   3.23e-21
  1.1264e+05   3.08e-21
  1.1686e+05   2.95e-21
  1.2123e+05   2.82e-21
  1.2577e+05   2.69e-21
  1.3048e+05   2.57e-21
  1.3536e+05   2.45e-21
  1.4043e+05   2.34e-21
  1.4568e+05   2.23e-21
  1.5114e+05   2.13e-21
  1.5680e+05   2.03e-21
  1.6266e+05   1.93e-21
  1.6875e+05   1.84e-21
  1.7507e+05   1.75e-21
  1.8162e+05   1.67e-21
  1.8842e+05   1.59e-21
  1.9548e+05   1.51e-21
  2.0279e+05   1.43e-21
  2.1039e+05   1.36e-21
  2.1826e+05   1.29e-21
  2.2643e+05   1.23e-21
  2.3491e+05   1.16e-21
  2.4370e+05   1.10e-21
  2.5282e+05   1.04e-21
  2.6229e+05   9.86e-22
  2.7211e+05   9.33e-22
  2.8229e+05   8.81e-22
  2.9286e+05   8.32e-22
  3.0382e+05   7.85e-22
  3.1519e+05   7.40e-22
  3.2699e+05   6.97e-22
  3.3923e+05   6.56e-22
  3.5193e+05   6.17e-22
  3.6511e+05   5.80e-22
  3.7877e+05   5.45e-22
  3.9295e+05   5.11e-22
  4.0766e+05   4.79e-22
  4.2292e+05   4.49e-22
  4.3875e+05   4.20e-22
  4.5518e+05   3.93e-22
  4.7222e+05   3.67e-22
  4.8989e+05   3.43e-22
  5.0823e+05   3.20e-22
  5.2726e+05   2.98e-22
  5.4699e+05   2.78e-22
  5.6747e+05   2.59e-22
  5.8871e+05   2.41e-22
  6.1075e+05   2.24e-22
  6.3361e+05   2.08e-22
  6.5733e+05   1.93e-22
  6.8194e+05   1.79e-22
  7.0746e+05   1.66e-22
  7.3395e+05   1.54e-22
  7.6142e+05   1.43e-22
  7.8992e+05   1.32e-22
  8.1949e+05   1.22e-22
  8.5017e+05   1.13e-22
  8.8199e+05   1.05e-22
  9.1501e+05   9.69e-23
  9.4926e+05   8.96e-23
  9.8479e+05   8.28e-23
  1.0217e+06   7.66e-23
  1.0599e+06   7.07e-23
  1.0996e+06   6.53e-23
  1.1407e+06   6.03e-23
  1.1834e+06   5.57e-23
  1.2277e+06   5.14e-23
  1.2737e+06   4.74e-23
  1.3214e+06   4.38e-23
  1.3708e+06   4.04e-23
  1.4222e+06   3.73e-23
  1.4754e+06   3.44e-23
  1.5306e+06   3.17e-23
  1.5879e+06   2.92e-23
  1.6474e+06   2.69e-23
  1.7090e+06   2.48e-23
  1.7730e+06   2.29e-23
  1.8394e+06   2.10e-23
  1.9082e+06   1.94e-23
  1.9797e+06   1.78e-23
  2.0538e+06   1.64e-23
  2.1306e+06   1.51e-23
  2.2104e+06   1.39e-23
  2.2931e+06   1.27e-23
  2.3790e+06   1.17e-23
  2.4680e+06   1.07e-23
  2.5604e+06   9.81e-24
  2.6563e+06   8.97e-24
  2.7557e+06   8.21e-24
  2.8589e+06   7.51e-24
  2.9659e+06   6.85e-24
  3.0769e+06   6.25e-24
  3.1921e+06   5.70e-24
  3.3116e+06   5.18e-24
  3.4355e+06   4.71e-24
  3.5641e+06   4.28e-24
  3.6976e+06   3.88e-24
  3.8360e+06   3.51e-24
  3.9796e+06   3.18e-24
  4.1285e+06   2.87e-24
  4.2831e+06   2.58e-24
  4.4434e+06   2.32e-24
  4.6097e+06   2.08e-24
  4.7823e+06   1.86e-24
  4.9613e+06   1.67e-24
  5.1470e+06   1.48e-24
  5.3397e+06   1.32e-24
  5.5396e+06   1.17e-24
  5.7470e+06   1.04e-24
  5.9621e+06   9.11e-25
  6.1853e+06   8.03e-25
  6.4168e+06   7.04e-25
  6.6570e+06   6.14e-25
  6.9062e+06   5.35e-25
  7.1647e+06   4.64e-25
  7.4329e+06   4.00e-25
  7.7112e+06   3.44e-25
  7.9998e+06   2.95e-25
  8.2993e+06   2.51e-25
  8.6100e+06   2.12e-25
  8.9323e+06   1.79e-25
  9.2666e+06   1.50e-25
  9.6135e+06   1.24e-25
  9.9734e+06   1.03e-25
  1.0347e+07   8.39e-26
  1.0734e+07   6.77e-26
  1.1136e+07   5.47e-26
  1.1553e+07   4.36e-26
  1.1985e+07   3.40e-26
  1.2434e+07   2.67e-26
  1.2899e+07   2.05e-26
  1.3382e+07   1.54e-26
  1.3883e+07   1.15e-26
  1.4403e+07   8.48e-27
  1.4942e+07   6.05e-27
  1.5501e+07   4.27e-27
  1.6081e+07   2.95e-27
  1.6683e+07   1.96e-27
  1.7308e+07   1.27e-27
  1.7956e+07   8.02e-28
  1.8628e+07   4.81e-28
  1.9325e+07   2.78e-28
  2.0049e+07   1.54e-28
  2.0799e+07   8.01e-29
  2.1578e+07   3.90e-29
  2.2386e+07   1.79e-29
  2.3224e+07   7.49e-30
  2.4093e+07   2.82e-30
  2.4995e+07   9.72e-31
  2.5930e+07   2.90e-31
  2.6901e+07   7.29e-32
  2.7908e+07   1.58e-32
  2.8953e+07   2.71e-33
  3.0037e+07   3.54e-34
  3.1161e+07   3.48e-35
  3.2327e+07   2.33e-36
  3.3537e+07   9.73e-38
  3.4793e+07   2.41e-39
  3.6095e+07   3.02e-41
  3.7446e+07   1.61e-43
  3.8848e+07   3.06e-46
  4.0302e+07   1.58e-49
  4.1811e+07   1.53e-53
  4.3376e+07   1.86e-58
  4.5000e+07   1.60e-64
