#  E [MeV]   Flux [# cm^{-2} s^{-1}  MeV^{-1}]
  3.0000e+04   1.94e-20
  3.1123e+04   1.87e-20
  3.2288e+04   1.79e-20
  3.3497e+04   1.72e-20
  3.4751e+04   1.65e-20
  3.6051e+04   1.58e-20
  3.7401e+04   1.52e-20
  3.8801e+04   1.46e-20
  4.0253e+04   1.40e-20
  4.1760e+04   1.34e-20
  4.3324e+04   1.29e-20
  4.4945e+04   1.23e-20
  4.6628e+04   1.18e-20
  4.8373e+04   1.13e-20
  5.0184e+04   1.09e-20
  5.2063e+04   1.04e-20
  5.4011e+04   9.99e-21
  5.6033e+04   9.57e-21
  5.8131e+04   9.17e-21
  6.0307e+04   8.78e-21
  6.2564e+04   8.41e-21
  6.4906e+04   8.06e-21
  6.7336e+04   7.72e-21
  6.9857e+04   7.39e-21
  7.2472e+04   7.07e-21
  7.5184e+04   6.77e-21
  7.7999e+04   6.48e-21
  8.0919e+04   6.20e-21
  8.3948e+04   5.93e-21
  8.7090e+04   5.67e-21
  9.0350e+04   5.42e-21
  9.3732e+04   5.18e-21
  9.7241e+04   4.95e-21
  1.0088e+05   4.73e-21
  1.0466e+05   4.52e-21
  1.0858e+05   4.31e-21
  1.1264e+05   4.12e-21
  1.1686e+05   3.93e-21
  1.2123e+05   3.75e-21
  1.2577e+05   3.57e-21
  1.3048e+05   3.41e-21
  1.3536e+05   3.25e-21
  1.4043e+05   3.09e-21
  1.4568e+05   2.95e-21
  1.5114e+05   2.81e-21
  1.5680e+05   2.67e-21
  1.6266e+05   2.54e-21
  1.6875e+05   2.41e-21
  1.7507e+05   2.29e-21
  1.8162e+05   2.18e-21
  1.8842e+05   2.06e-21
  1.9548e+05   1.96e-21
  2.0279e+05   1.86e-21
  2.1039e+05   1.76e-21
  2.1826e+05   1.67e-21
  2.2643e+05   1.58e-21
  2.3491e+05   1.49e-21
  2.4370e+05   1.41e-21
  2.5282e+05   1.33e-21
  2.6229e+05   1.26e-21
  2.7211e+05   1.18e-21
  2.8229e+05   1.12e-21
  2.9286e+05   1.05e-21
  3.0382e+05   9.87e-22
  3.1519e+05   9.27e-22
  3.2699e+05   8.70e-22
  3.3923e+05   8.16e-22
  3.5193e+05   7.65e-22
  3.6511e+05   7.16e-22
  3.7877e+05   6.69e-22
  3.9295e+05   6.26e-22
  4.0766e+05   5.84e-22
  4.2292e+05   5.45e-22
  4.3875e+05   5.08e-22
  4.5518e+05   4.73e-22
  4.7222e+05   4.40e-22
  4.8989e+05   4.09e-22
  5.0823e+05   3.79e-22
  5.2726e+05   3.52e-22
  5.4699e+05   3.26e-22
  5.6747e+05   3.02e-22
  5.8871e+05   2.79e-22
  6.1075e+05   2.58e-22
  6.3361e+05   2.39e-22
  6.5733e+05   2.20e-22
  6.8194e+05   2.03e-22
  7.0746e+05   1.88e-22
  7.3395e+05   1.73e-22
  7.6142e+05   1.59e-22
  7.8992e+05   1.47e-22
  8.1949e+05   1.35e-22
  8.5017e+05   1.24e-22
  8.8199e+05   1.14e-22
  9.1501e+05   1.05e-22
  9.4926e+05   9.68e-23
  9.8479e+05   8.90e-23
  1.0217e+06   8.19e-23
  1.0599e+06   7.52e-23
  1.0996e+06   6.92e-23
  1.1407e+06   6.35e-23
  1.1834e+06   5.83e-23
  1.2277e+06   5.36e-23
  1.2737e+06   4.93e-23
  1.3214e+06   4.52e-23
  1.3708e+06   4.16e-23
  1.4222e+06   3.82e-23
  1.4754e+06   3.51e-23
  1.5306e+06   3.22e-23
  1.5879e+06   2.96e-23
  1.6474e+06   2.72e-23
  1.7090e+06   2.50e-23
  1.7730e+06   2.29e-23
  1.8394e+06   2.10e-23
  1.9082e+06   1.93e-23
  1.9797e+06   1.77e-23
  2.0538e+06   1.62e-23
  2.1306e+06   1.49e-23
  2.2104e+06   1.36e-23
  2.2931e+06   1.25e-23
  2.3790e+06   1.14e-23
  2.4680e+06   1.05e-23
  2.5604e+06   9.55e-24
  2.6563e+06   8.71e-24
  2.7557e+06   7.96e-24
  2.8589e+06   7.25e-24
  2.9659e+06   6.60e-24
  3.0769e+06   6.01e-24
  3.1921e+06   5.46e-24
  3.3116e+06   4.95e-24
  3.4355e+06   4.49e-24
  3.5641e+06   4.07e-24
  3.6976e+06   3.67e-24
  3.8360e+06   3.32e-24
  3.9796e+06   2.99e-24
  4.1285e+06   2.68e-24
  4.2831e+06   2.41e-24
  4.4434e+06   2.16e-24
  4.6097e+06   1.93e-24
  4.7823e+06   1.72e-24
  4.9613e+06   1.53e-24
  5.1470e+06   1.36e-24
  5.3397e+06   1.20e-24
  5.5396e+06   1.06e-24
  5.7470e+06   9.35e-25
  5.9621e+06   8.18e-25
  6.1853e+06   7.18e-25
  6.4168e+06   6.25e-25
  6.6570e+06   5.41e-25
  6.9062e+06   4.70e-25
  7.1647e+06   4.04e-25
  7.4329e+06   3.46e-25
  7.7112e+06   2.96e-25
  7.9998e+06   2.51e-25
  8.2993e+06   2.11e-25
  8.6100e+06   1.78e-25
  8.9323e+06   1.49e-25
  9.2666e+06   1.23e-25
  9.6135e+06   1.01e-25
  9.9734e+06   8.25e-26
  1.0347e+07   6.66e-26
  1.0734e+07   5.33e-26
  1.1136e+07   4.24e-26
  1.1553e+07   3.32e-26
  1.1985e+07   2.57e-26
  1.2434e+07   1.98e-26
  1.2899e+07   1.49e-26
  1.3382e+07   1.10e-26
  1.3883e+07   8.06e-27
  1.4403e+07   5.76e-27
  1.4942e+07   4.01e-27
  1.5501e+07   2.75e-27
  1.6081e+07   1.82e-27
  1.6683e+07   1.16e-27
  1.7308e+07   7.29e-28
  1.7956e+07   4.36e-28
  1.8628e+07   2.48e-28
  1.9325e+07   1.35e-28
  2.0049e+07   6.94e-29
  2.0799e+07   3.31e-29
  2.1578e+07   1.47e-29
  2.2386e+07   5.94e-30
  2.3224e+07   2.16e-30
  2.4093e+07   6.95e-31
  2.4995e+07   1.94e-31
  2.5930e+07   4.56e-32
  2.6901e+07   8.83e-33
  2.7908e+07   1.36e-33
  2.8953e+07   1.58e-34
  3.0037e+07   1.32e-35
  3.1161e+07   7.52e-37
  3.2327e+07   2.62e-38
  3.3537e+07   5.12e-40
  3.4793e+07   5.23e-42
  3.6095e+07   2.19e-44
  3.7446e+07   3.13e-47
  3.8848e+07   1.47e-50
  4.0302e+07   1.22e-54
  4.1811e+07   1.22e-59
  4.3376e+07   3.58e-65
  4.5000e+07   4.31e-65
