#  E [MeV]   Flux [# cm^{-2} s^{-1}  MeV^{-1}]
  3.0000e+04   2.03e-26
  3.1051e+04   1.96e-26
  3.2139e+04   1.88e-26
  3.3266e+04   1.81e-26
  3.4432e+04   1.74e-26
  3.5638e+04   1.67e-26
  3.6887e+04   1.61e-26
  3.8180e+04   1.55e-26
  3.9518e+04   1.49e-26
  4.0903e+04   1.43e-26
  4.2336e+04   1.37e-26
  4.3820e+04   1.32e-26
  4.5355e+04   1.26e-26
  4.6945e+04   1.21e-26
  4.8590e+04   1.16e-26
  5.0293e+04   1.11e-26
  5.2055e+04   1.07e-26
  5.3879e+04   1.02e-26
  5.5767e+04   9.82e-27
  5.7722e+04   9.41e-27
  5.9745e+04   9.01e-27
  6.1838e+04   8.63e-27
  6.4005e+04   8.26e-27
  6.6248e+04   7.91e-27
  6.8570e+04   7.57e-27
  7.0973e+04   7.24e-27
  7.3460e+04   6.92e-27
  7.6034e+04   6.62e-27
  7.8699e+04   6.33e-27
  8.1457e+04   6.05e-27
  8.4311e+04   5.78e-27
  8.7266e+04   5.52e-27
  9.0324e+04   5.27e-27
  9.3490e+04   5.03e-27
  9.6766e+04   4.80e-27
  1.0016e+05   4.58e-27
  1.0367e+05   4.37e-27
  1.0730e+05   4.16e-27
  1.1106e+05   3.97e-27
  1.1495e+05   3.78e-27
  1.1898e+05   3.60e-27
  1.2315e+05   3.43e-27
  1.2747e+05   3.26e-27
  1.3193e+05   3.10e-27
  1.3656e+05   2.95e-27
  1.4134e+05   2.81e-27
  1.4629e+05   2.67e-27
  1.5142e+05   2.53e-27
  1.5673e+05   2.41e-27
  1.6222e+05   2.28e-27
  1.6790e+05   2.17e-27
  1.7379e+05   2.05e-27
  1.7988e+05   1.95e-27
  1.8618e+05   1.84e-27
  1.9271e+05   1.75e-27
  1.9946e+05   1.65e-27
  2.0645e+05   1.56e-27
  2.1369e+05   1.48e-27
  2.2117e+05   1.40e-27
  2.2892e+05   1.32e-27
  2.3695e+05   1.24e-27
  2.4525e+05   1.17e-27
  2.5385e+05   1.11e-27
  2.6274e+05   1.04e-27
  2.7195e+05   9.81e-28
  2.8148e+05   9.23e-28
  2.9134e+05   8.68e-28
  3.0155e+05   8.16e-28
  3.1212e+05   7.66e-28
  3.2306e+05   7.19e-28
  3.3438e+05   6.74e-28
  3.4610e+05   6.32e-28
  3.5823e+05   5.91e-28
  3.7078e+05   5.53e-28
  3.8377e+05   5.17e-28
  3.9722e+05   4.83e-28
  4.1114e+05   4.51e-28
  4.2555e+05   4.21e-28
  4.4046e+05   3.92e-28
  4.5590e+05   3.65e-28
  4.7188e+05   3.40e-28
  4.8841e+05   3.16e-28
  5.0553e+05   2.94e-28
  5.2324e+05   2.73e-28
  5.4158e+05   2.54e-28
  5.6056e+05   2.36e-28
  5.8020e+05   2.19e-28
  6.0054e+05   2.03e-28
  6.2158e+05   1.88e-28
  6.4337e+05   1.75e-28
  6.6591e+05   1.62e-28
  6.8925e+05   1.50e-28
  7.1340e+05   1.39e-28
  7.3840e+05   1.29e-28
  7.6428e+05   1.19e-28
  7.9106e+05   1.11e-28
  8.1878e+05   1.03e-28
  8.4748e+05   9.52e-29
  8.7718e+05   8.83e-29
  9.0792e+05   8.19e-29
  9.3973e+05   7.60e-29
  9.7267e+05   7.06e-29
  1.0068e+06   6.56e-29
  1.0420e+06   6.09e-29
  1.0785e+06   5.67e-29
  1.1163e+06   5.28e-29
  1.1555e+06   4.91e-29
  1.1960e+06   4.58e-29
  1.2379e+06   4.27e-29
  1.2813e+06   3.98e-29
  1.3262e+06   3.72e-29
  1.3726e+06   3.48e-29
  1.4207e+06   3.25e-29
  1.4705e+06   3.04e-29
  1.5220e+06   2.85e-29
  1.5754e+06   2.67e-29
  1.6306e+06   2.50e-29
  1.6877e+06   2.35e-29
  1.7469e+06   2.21e-29
  1.8081e+06   2.07e-29
  1.8715e+06   1.95e-29
  1.9370e+06   1.84e-29
  2.0049e+06   1.73e-29
  2.0752e+06   1.63e-29
  2.1479e+06   1.54e-29
  2.2232e+06   1.45e-29
  2.3011e+06   1.37e-29
  2.3817e+06   1.29e-29
  2.4652e+06   1.21e-29
  2.5516e+06   1.15e-29
  2.6410e+06   1.08e-29
  2.7336e+06   1.02e-29
  2.8294e+06   9.62e-30
  2.9285e+06   9.07e-30
  3.0311e+06   8.56e-30
  3.1374e+06   8.07e-30
  3.2473e+06   7.60e-30
  3.3611e+06   7.16e-30
  3.4789e+06   6.74e-30
  3.6008e+06   6.34e-30
  3.7270e+06   5.96e-30
  3.8576e+06   5.60e-30
  3.9928e+06   5.25e-30
  4.1327e+06   4.92e-30
  4.2775e+06   4.61e-30
  4.4274e+06   4.31e-30
  4.5826e+06   4.03e-30
  4.7432e+06   3.75e-30
  4.9094e+06   3.49e-30
  5.0815e+06   3.24e-30
  5.2595e+06   3.00e-30
  5.4438e+06   2.77e-30
  5.6346e+06   2.55e-30
  5.8321e+06   2.35e-30
  6.0365e+06   2.15e-30
  6.2480e+06   1.96e-30
  6.4670e+06   1.79e-30
  6.6936e+06   1.62e-30
  6.9282e+06   1.47e-30
  7.1709e+06   1.32e-30
  7.4222e+06   1.18e-30
  7.6823e+06   1.05e-30
  7.9516e+06   9.31e-31
  8.2302e+06   8.20e-31
  8.5186e+06   7.18e-31
  8.8172e+06   6.24e-31
  9.1262e+06   5.39e-31
  9.4460e+06   4.61e-31
  9.7770e+06   3.91e-31
  1.0120e+07   3.29e-31
  1.0474e+07   2.73e-31
  1.0841e+07   2.24e-31
  1.1221e+07   1.82e-31
  1.1614e+07   1.45e-31
  1.2022e+07   1.15e-31
  1.2443e+07   8.87e-32
  1.2879e+07   6.75e-32
  1.3330e+07   5.03e-32
  1.3797e+07   3.67e-32
  1.4281e+07   2.61e-32
  1.4781e+07   1.80e-32
  1.5299e+07   1.21e-32
  1.5835e+07   7.87e-33
  1.6390e+07   4.92e-33
  1.6965e+07   2.95e-33
  1.7559e+07   1.69e-33
  1.8175e+07   9.19e-34
  1.8812e+07   4.70e-34
  1.9471e+07   2.25e-34
  2.0153e+07   1.00e-34
  2.0859e+07   4.08e-35
  2.1590e+07   1.51e-35
  2.2347e+07   5.01e-36
  2.3130e+07   1.46e-36
  2.3941e+07   3.70e-37
  2.4780e+07   7.91e-38
  2.5648e+07   1.40e-38
  2.6547e+07   1.98e-39
  2.7477e+07   2.19e-40
  2.8440e+07   1.78e-41
