#  E [MeV]   Flux [# cm^{-2} s^{-1}  MeV^{-1}]
  3.0000e+04   2.14e-20
  3.1123e+04   2.04e-20
  3.2288e+04   1.95e-20
  3.3497e+04   1.87e-20
  3.4751e+04   1.79e-20
  3.6051e+04   1.71e-20
  3.7401e+04   1.63e-20
  3.8801e+04   1.56e-20
  4.0253e+04   1.49e-20
  4.1760e+04   1.42e-20
  4.3324e+04   1.36e-20
  4.4945e+04   1.30e-20
  4.6628e+04   1.24e-20
  4.8373e+04   1.18e-20
  5.0184e+04   1.13e-20
  5.2063e+04   1.07e-20
  5.4011e+04   1.02e-20
  5.6033e+04   9.77e-21
  5.8131e+04   9.32e-21
  6.0307e+04   8.89e-21
  6.2564e+04   8.47e-21
  6.4906e+04   8.07e-21
  6.7336e+04   7.69e-21
  6.9857e+04   7.32e-21
  7.2472e+04   6.98e-21
  7.5184e+04   6.64e-21
  7.7999e+04   6.32e-21
  8.0919e+04   6.02e-21
  8.3948e+04   5.72e-21
  8.7090e+04   5.45e-21
  9.0350e+04   5.18e-21
  9.3732e+04   4.92e-21
  9.7241e+04   4.68e-21
  1.0088e+05   4.45e-21
  1.0466e+05   4.23e-21
  1.0858e+05   4.01e-21
  1.1264e+05   3.81e-21
  1.1686e+05   3.62e-21
  1.2123e+05   3.43e-21
  1.2577e+05   3.26e-21
  1.3048e+05   3.09e-21
  1.3536e+05   2.93e-21
  1.4043e+05   2.77e-21
  1.4568e+05   2.63e-21
  1.5114e+05   2.49e-21
  1.5680e+05   2.35e-21
  1.6266e+05   2.23e-21
  1.6875e+05   2.10e-21
  1.7507e+05   1.99e-21
  1.8162e+05   1.88e-21
  1.8842e+05   1.77e-21
  1.9548e+05   1.67e-21
  2.0279e+05   1.58e-21
  2.1039e+05   1.48e-21
  2.1826e+05   1.40e-21
  2.2643e+05   1.32e-21
  2.3491e+05   1.24e-21
  2.4370e+05   1.16e-21
  2.5282e+05   1.09e-21
  2.6229e+05   1.02e-21
  2.7211e+05   9.59e-22
  2.8229e+05   8.98e-22
  2.9286e+05   8.39e-22
  3.0382e+05   7.84e-22
  3.1519e+05   7.32e-22
  3.2699e+05   6.83e-22
  3.3923e+05   6.36e-22
  3.5193e+05   5.92e-22
  3.6511e+05   5.51e-22
  3.7877e+05   5.11e-22
  3.9295e+05   4.75e-22
  4.0766e+05   4.40e-22
  4.2292e+05   4.07e-22
  4.3875e+05   3.77e-22
  4.5518e+05   3.48e-22
  4.7222e+05   3.21e-22
  4.8989e+05   2.96e-22
  5.0823e+05   2.73e-22
  5.2726e+05   2.51e-22
  5.4699e+05   2.31e-22
  5.6747e+05   2.12e-22
  5.8871e+05   1.95e-22
  6.1075e+05   1.79e-22
  6.3361e+05   1.64e-22
  6.5733e+05   1.50e-22
  6.8194e+05   1.37e-22
  7.0746e+05   1.26e-22
  7.3395e+05   1.15e-22
  7.6142e+05   1.05e-22
  7.8992e+05   9.59e-23
  8.1949e+05   8.75e-23
  8.5017e+05   7.98e-23
  8.8199e+05   7.28e-23
  9.1501e+05   6.64e-23
  9.4926e+05   6.05e-23
  9.8479e+05   5.52e-23
  1.0217e+06   5.02e-23
  1.0599e+06   4.58e-23
  1.0996e+06   4.17e-23
  1.1407e+06   3.79e-23
  1.1834e+06   3.45e-23
  1.2277e+06   3.14e-23
  1.2737e+06   2.86e-23
  1.3214e+06   2.60e-23
  1.3708e+06   2.36e-23
  1.4222e+06   2.15e-23
  1.4754e+06   1.95e-23
  1.5306e+06   1.77e-23
  1.5879e+06   1.61e-23
  1.6474e+06   1.46e-23
  1.7090e+06   1.33e-23
  1.7730e+06   1.21e-23
  1.8394e+06   1.09e-23
  1.9082e+06   9.92e-24
  1.9797e+06   8.99e-24
  2.0538e+06   8.14e-24
  2.1306e+06   7.36e-24
  2.2104e+06   6.66e-24
  2.2931e+06   6.01e-24
  2.3790e+06   5.42e-24
  2.4680e+06   4.89e-24
  2.5604e+06   4.40e-24
  2.6563e+06   3.95e-24
  2.7557e+06   3.55e-24
  2.8589e+06   3.19e-24
  2.9659e+06   2.85e-24
  3.0769e+06   2.55e-24
  3.1921e+06   2.28e-24
  3.3116e+06   2.02e-24
  3.4355e+06   1.81e-24
  3.5641e+06   1.60e-24
  3.6976e+06   1.42e-24
  3.8360e+06   1.26e-24
  3.9796e+06   1.11e-24
  4.1285e+06   9.74e-25
  4.2831e+06   8.56e-25
  4.4434e+06   7.50e-25
  4.6097e+06   6.53e-25
  4.7823e+06   5.69e-25
  4.9613e+06   4.94e-25
  5.1470e+06   4.26e-25
  5.3397e+06   3.67e-25
  5.5396e+06   3.16e-25
  5.7470e+06   2.70e-25
  5.9621e+06   2.29e-25
  6.1853e+06   1.95e-25
  6.4168e+06   1.65e-25
  6.6570e+06   1.38e-25
  6.9062e+06   1.16e-25
  7.1647e+06   9.66e-26
  7.4329e+06   7.95e-26
  7.7112e+06   6.59e-26
  7.9998e+06   5.39e-26
  8.2993e+06   4.34e-26
  8.6100e+06   3.52e-26
  8.9323e+06   2.82e-26
  9.2666e+06   2.22e-26
  9.6135e+06   1.75e-26
  9.9734e+06   1.37e-26
  1.0347e+07   1.05e-26
  1.0734e+07   8.00e-27
  1.1136e+07   6.04e-27
  1.1553e+07   4.46e-27
  1.1985e+07   3.27e-27
  1.2434e+07   2.36e-27
  1.2899e+07   1.66e-27
  1.3382e+07   1.15e-27
  1.3883e+07   7.87e-28
  1.4403e+07   5.20e-28
  1.4942e+07   3.34e-28
  1.5501e+07   2.11e-28
  1.6081e+07   1.27e-28
  1.6683e+07   7.38e-29
  1.7308e+07   4.16e-29
  1.7956e+07   2.22e-29
  1.8628e+07   1.11e-29
  1.9325e+07   5.32e-30
  2.0049e+07   2.35e-30
  2.0799e+07   9.51e-31
  2.1578e+07   3.54e-31
  2.2386e+07   1.18e-31
  2.3224e+07   3.42e-32
  2.4093e+07   8.64e-33
  2.4995e+07   1.83e-33
  2.5930e+07   3.16e-34
  2.6901e+07   4.33e-35
  2.7908e+07   4.48e-36
  2.8953e+07   3.33e-37
  3.0037e+07   1.67e-38
  3.1161e+07   5.28e-40
  3.2327e+07   9.51e-42
  3.3537e+07   8.70e-44
  3.4793e+07   3.52e-46
  3.6095e+07   5.26e-49
  3.7446e+07   2.34e-52
  3.8848e+07   2.33e-56
  4.0302e+07   3.65e-61
  4.1811e+07   5.74e-67
  4.3376e+07   2.57e-67
  4.5000e+07   2.36e-67
