#  E [MeV]   Flux [# cm^{-2} s^{-1}  MeV^{-1}]
  3.0000e+04   2.36e-25
  3.0962e+04   2.27e-25
  3.1955e+04   2.19e-25
  3.2979e+04   2.12e-25
  3.4037e+04   2.04e-25
  3.5128e+04   1.97e-25
  3.6254e+04   1.90e-25
  3.7417e+04   1.83e-25
  3.8616e+04   1.76e-25
  3.9855e+04   1.70e-25
  4.1132e+04   1.64e-25
  4.2451e+04   1.58e-25
  4.3812e+04   1.52e-25
  4.5217e+04   1.47e-25
  4.6667e+04   1.41e-25
  4.8163e+04   1.36e-25
  4.9707e+04   1.31e-25
  5.1301e+04   1.26e-25
  5.2946e+04   1.22e-25
  5.4644e+04   1.17e-25
  5.6396e+04   1.13e-25
  5.8204e+04   1.09e-25
  6.0070e+04   1.05e-25
  6.1996e+04   1.01e-25
  6.3984e+04   9.75e-26
  6.6035e+04   9.39e-26
  6.8153e+04   9.05e-26
  7.0338e+04   8.72e-26
  7.2593e+04   8.40e-26
  7.4921e+04   8.10e-26
  7.7323e+04   7.80e-26
  7.9802e+04   7.52e-26
  8.2361e+04   7.25e-26
  8.5002e+04   6.98e-26
  8.7727e+04   6.73e-26
  9.0540e+04   6.49e-26
  9.3443e+04   6.26e-26
  9.6439e+04   6.04e-26
  9.9531e+04   5.82e-26
  1.0272e+05   5.62e-26
  1.0602e+05   5.42e-26
  1.0942e+05   5.23e-26
  1.1292e+05   5.05e-26
  1.1654e+05   4.88e-26
  1.2028e+05   4.71e-26
  1.2414e+05   4.55e-26
  1.2812e+05   4.39e-26
  1.3223e+05   4.25e-26
  1.3646e+05   4.10e-26
  1.4084e+05   3.97e-26
  1.4536e+05   3.84e-26
  1.5002e+05   3.71e-26
  1.5483e+05   3.59e-26
  1.5979e+05   3.48e-26
  1.6491e+05   3.36e-26
  1.7020e+05   3.26e-26
  1.7566e+05   3.15e-26
  1.8129e+05   3.05e-26
  1.8710e+05   2.96e-26
  1.9310e+05   2.87e-26
  1.9929e+05   2.78e-26
  2.0568e+05   2.70e-26
  2.1228e+05   2.62e-26
  2.1909e+05   2.54e-26
  2.2611e+05   2.46e-26
  2.3336e+05   2.39e-26
  2.4084e+05   2.32e-26
  2.4856e+05   2.26e-26
  2.5653e+05   2.19e-26
  2.6476e+05   2.13e-26
  2.7325e+05   2.07e-26
  2.8201e+05   2.01e-26
  2.9105e+05   1.96e-26
  3.0038e+05   1.90e-26
  3.1002e+05   1.85e-26
  3.1996e+05   1.80e-26
  3.3021e+05   1.75e-26
  3.4080e+05   1.70e-26
  3.5173e+05   1.66e-26
  3.6301e+05   1.61e-26
  3.7465e+05   1.57e-26
  3.8666e+05   1.53e-26
  3.9905e+05   1.49e-26
  4.1185e+05   1.45e-26
  4.2506e+05   1.41e-26
  4.3868e+05   1.37e-26
  4.5275e+05   1.34e-26
  4.6727e+05   1.30e-26
  4.8225e+05   1.27e-26
  4.9771e+05   1.23e-26
  5.1367e+05   1.20e-26
  5.3014e+05   1.17e-26
  5.4714e+05   1.14e-26
  5.6468e+05   1.11e-26
  5.8278e+05   1.08e-26
  6.0147e+05   1.05e-26
  6.2075e+05   1.02e-26
  6.4066e+05   9.96e-27
  6.6120e+05   9.70e-27
  6.8240e+05   9.44e-27
  7.0428e+05   9.19e-27
  7.2686e+05   8.94e-27
  7.5017e+05   8.70e-27
  7.7422e+05   8.47e-27
  7.9904e+05   8.24e-27
  8.2466e+05   8.02e-27
  8.5110e+05   7.80e-27
  8.7839e+05   7.59e-27
  9.0656e+05   7.38e-27
  9.3562e+05   7.18e-27
  9.6562e+05   6.98e-27
  9.9658e+05   6.78e-27
  1.0285e+06   6.59e-27
  1.0615e+06   6.41e-27
  1.0956e+06   6.23e-27
  1.1307e+06   6.05e-27
  1.1669e+06   5.88e-27
  1.2043e+06   5.71e-27
  1.2430e+06   5.55e-27
  1.2828e+06   5.38e-27
  1.3239e+06   5.22e-27
  1.3664e+06   5.07e-27
  1.4102e+06   4.92e-27
  1.4554e+06   4.77e-27
  1.5021e+06   4.63e-27
  1.5502e+06   4.49e-27
  1.6000e+06   4.35e-27
  1.6513e+06   4.21e-27
  1.7042e+06   4.08e-27
  1.7588e+06   3.95e-27
  1.8152e+06   3.82e-27
  1.8734e+06   3.69e-27
  1.9335e+06   3.57e-27
  1.9955e+06   3.45e-27
  2.0595e+06   3.33e-27
  2.1255e+06   3.21e-27
  2.1937e+06   3.10e-27
  2.2640e+06   2.99e-27
  2.3366e+06   2.88e-27
  2.4115e+06   2.77e-27
  2.4888e+06   2.67e-27
  2.5686e+06   2.56e-27
  2.6510e+06   2.46e-27
  2.7360e+06   2.37e-27
  2.8237e+06   2.27e-27
  2.9142e+06   2.17e-27
  3.0077e+06   2.08e-27
  3.1041e+06   1.99e-27
  3.2036e+06   1.90e-27
  3.3064e+06   1.81e-27
  3.4124e+06   1.73e-27
  3.5218e+06   1.65e-27
  3.6347e+06   1.57e-27
  3.7512e+06   1.49e-27
  3.8715e+06   1.41e-27
  3.9957e+06   1.34e-27
  4.1238e+06   1.26e-27
  4.2560e+06   1.19e-27
  4.3924e+06   1.13e-27
  4.5333e+06   1.06e-27
  4.6786e+06   9.96e-28
  4.8286e+06   9.35e-28
  4.9835e+06   8.77e-28
  5.1433e+06   8.19e-28
  5.3082e+06   7.65e-28
  5.4784e+06   7.13e-28
  5.6540e+06   6.63e-28
  5.8353e+06   6.15e-28
  6.0224e+06   5.70e-28
  6.2155e+06   5.26e-28
  6.4148e+06   4.84e-28
  6.6205e+06   4.44e-28
  6.8327e+06   4.06e-28
  7.0518e+06   3.70e-28
  7.2779e+06   3.37e-28
  7.5113e+06   3.05e-28
  7.7521e+06   2.75e-28
  8.0007e+06   2.48e-28
  8.2572e+06   2.23e-28
  8.5219e+06   1.99e-28
  8.7952e+06   1.77e-28
  9.0772e+06   1.57e-28
  9.3682e+06   1.39e-28
  9.6686e+06   1.22e-28
  9.9786e+06   1.07e-28
  1.0299e+07   9.34e-29
  1.0629e+07   8.09e-29
  1.0970e+07   6.93e-29
  1.1321e+07   5.98e-29
  1.1684e+07   5.13e-29
  1.2059e+07   4.35e-29
  1.2446e+07   3.66e-29
  1.2845e+07   3.12e-29
  1.3256e+07   2.63e-29
  1.3681e+07   2.19e-29
  1.4120e+07   1.83e-29
  1.4573e+07   1.55e-29
  1.5040e+07   1.30e-29
  1.5522e+07   1.07e-29
  1.6020e+07   9.22e-30
