#  E [MeV]   Flux [# cm^{-2} s^{-1}  MeV^{-1}]
  3.0000e+04   1.06e-26
  3.1141e+04   1.02e-26
  3.2326e+04   9.78e-27
  3.3556e+04   9.40e-27
  3.4832e+04   9.03e-27
  3.6157e+04   8.68e-27
  3.7533e+04   8.34e-27
  3.8961e+04   8.01e-27
  4.0443e+04   7.69e-27
  4.1982e+04   7.39e-27
  4.3579e+04   7.09e-27
  4.5237e+04   6.80e-27
  4.6958e+04   6.52e-27
  4.8744e+04   6.26e-27
  5.0598e+04   6.00e-27
  5.2523e+04   5.75e-27
  5.4521e+04   5.51e-27
  5.6596e+04   5.28e-27
  5.8749e+04   5.06e-27
  6.0984e+04   4.84e-27
  6.3304e+04   4.64e-27
  6.5712e+04   4.44e-27
  6.8212e+04   4.25e-27
  7.0807e+04   4.06e-27
  7.3500e+04   3.88e-27
  7.6297e+04   3.71e-27
  7.9199e+04   3.55e-27
  8.2212e+04   3.39e-27
  8.5340e+04   3.24e-27
  8.8586e+04   3.09e-27
  9.1956e+04   2.95e-27
  9.5455e+04   2.81e-27
  9.9086e+04   2.68e-27
  1.0286e+05   2.56e-27
  1.0677e+05   2.44e-27
  1.1083e+05   2.32e-27
  1.1505e+05   2.21e-27
  1.1942e+05   2.11e-27
  1.2397e+05   2.00e-27
  1.2868e+05   1.91e-27
  1.3358e+05   1.81e-27
  1.3866e+05   1.72e-27
  1.4394e+05   1.64e-27
  1.4941e+05   1.55e-27
  1.5509e+05   1.47e-27
  1.6100e+05   1.40e-27
  1.6712e+05   1.33e-27
  1.7348e+05   1.26e-27
  1.8008e+05   1.19e-27
  1.8693e+05   1.13e-27
  1.9404e+05   1.07e-27
  2.0142e+05   1.01e-27
  2.0908e+05   9.52e-28
  2.1704e+05   8.99e-28
  2.2529e+05   8.48e-28
  2.3387e+05   8.00e-28
  2.4276e+05   7.53e-28
  2.5200e+05   7.09e-28
  2.6158e+05   6.67e-28
  2.7154e+05   6.27e-28
  2.8187e+05   5.89e-28
  2.9259e+05   5.53e-28
  3.0372e+05   5.18e-28
  3.1527e+05   4.86e-28
  3.2727e+05   4.54e-28
  3.3972e+05   4.25e-28
  3.5264e+05   3.97e-28
  3.6606e+05   3.71e-28
  3.7998e+05   3.46e-28
  3.9444e+05   3.22e-28
  4.0945e+05   3.00e-28
  4.2502e+05   2.79e-28
  4.4119e+05   2.59e-28
  4.5798e+05   2.41e-28
  4.7540e+05   2.24e-28
  4.9348e+05   2.07e-28
  5.1226e+05   1.92e-28
  5.3175e+05   1.78e-28
  5.5198e+05   1.64e-28
  5.7297e+05   1.52e-28
  5.9477e+05   1.41e-28
  6.1740e+05   1.30e-28
  6.4089e+05   1.20e-28
  6.6527e+05   1.11e-28
  6.9058e+05   1.02e-28
  7.1685e+05   9.40e-29
  7.4412e+05   8.66e-29
  7.7243e+05   7.99e-29
  8.0181e+05   7.36e-29
  8.3232e+05   6.78e-29
  8.6398e+05   6.26e-29
  8.9685e+05   5.77e-29
  9.3097e+05   5.32e-29
  9.6638e+05   4.91e-29
  1.0031e+06   4.53e-29
  1.0413e+06   4.18e-29
  1.0809e+06   3.86e-29
  1.1220e+06   3.57e-29
  1.1647e+06   3.30e-29
  1.2090e+06   3.05e-29
  1.2550e+06   2.83e-29
  1.3028e+06   2.62e-29
  1.3523e+06   2.43e-29
  1.4038e+06   2.25e-29
  1.4572e+06   2.09e-29
  1.5126e+06   1.94e-29
  1.5702e+06   1.80e-29
  1.6299e+06   1.68e-29
  1.6919e+06   1.56e-29
  1.7563e+06   1.45e-29
  1.8231e+06   1.35e-29
  1.8925e+06   1.26e-29
  1.9645e+06   1.18e-29
  2.0392e+06   1.10e-29
  2.1168e+06   1.02e-29
  2.1973e+06   9.56e-30
  2.2809e+06   8.93e-30
  2.3677e+06   8.34e-30
  2.4577e+06   7.80e-30
  2.5512e+06   7.29e-30
  2.6483e+06   6.81e-30
  2.7490e+06   6.37e-30
  2.8536e+06   5.95e-30
  2.9622e+06   5.56e-30
  3.0749e+06   5.20e-30
  3.1918e+06   4.86e-30
  3.3133e+06   4.54e-30
  3.4393e+06   4.24e-30
  3.5702e+06   3.96e-30
  3.7060e+06   3.69e-30
  3.8470e+06   3.44e-30
  3.9933e+06   3.20e-30
  4.1452e+06   2.97e-30
  4.3029e+06   2.76e-30
  4.4666e+06   2.56e-30
  4.6366e+06   2.38e-30
  4.8129e+06   2.20e-30
  4.9960e+06   2.03e-30
  5.1861e+06   1.87e-30
  5.3834e+06   1.72e-30
  5.5882e+06   1.58e-30
  5.8008e+06   1.45e-30
  6.0215e+06   1.32e-30
  6.2506e+06   1.20e-30
  6.4883e+06   1.09e-30
  6.7352e+06   9.85e-31
  6.9914e+06   8.87e-31
  7.2574e+06   7.95e-31
  7.5335e+06   7.09e-31
  7.8201e+06   6.29e-31
  8.1176e+06   5.55e-31
  8.4264e+06   4.87e-31
  8.7470e+06   4.23e-31
  9.0797e+06   3.66e-31
  9.4251e+06   3.13e-31
  9.7837e+06   2.66e-31
  1.0156e+07   2.23e-31
  1.0542e+07   1.86e-31
  1.0943e+07   1.52e-31
  1.1360e+07   1.23e-31
  1.1792e+07   9.84e-32
  1.2240e+07   7.72e-32
  1.2706e+07   5.94e-32
  1.3189e+07   4.48e-32
  1.3691e+07   3.30e-32
  1.4212e+07   2.37e-32
  1.4753e+07   1.65e-32
  1.5314e+07   1.12e-32
  1.5897e+07   7.30e-33
  1.6501e+07   4.57e-33
  1.7129e+07   2.73e-33
  1.7781e+07   1.55e-33
  1.8457e+07   8.31e-34
  1.9159e+07   4.16e-34
  1.9888e+07   1.93e-34
  2.0645e+07   8.22e-35
  2.1430e+07   3.16e-35
  2.2245e+07   1.09e-35
  2.3092e+07   3.26e-36
  2.3970e+07   8.39e-37
  2.4882e+07   1.80e-37
  2.5829e+07   3.14e-38
  2.6811e+07   4.28e-39
  2.7831e+07   4.37e-40
  2.8890e+07   3.16e-41
  2.9989e+07   1.52e-42
  3.1130e+07   4.50e-44
  3.2314e+07   7.41e-46
  3.3544e+07   6.04e-48
  3.4820e+07   2.09e-50
  3.6144e+07   2.56e-53
  3.7519e+07   8.72e-57
  3.8947e+07   6.14e-61
  4.0428e+07   6.10e-66
  4.1966e+07   4.78e-71
  4.3563e+07   4.50e-71
  4.5220e+07   4.23e-71
  4.6941e+07   3.98e-71
  4.8726e+07   3.77e-71
  5.0580e+07   3.57e-71
