#  E [MeV]   Flux [# cm^{-2} s^{-1}  MeV^{-1}]
  3.0000e+04   7.00e-19
  3.0854e+04   6.75e-19
  3.1733e+04   6.50e-19
  3.2636e+04   6.26e-19
  3.3566e+04   6.03e-19
  3.4521e+04   5.81e-19
  3.5504e+04   5.60e-19
  3.6515e+04   5.39e-19
  3.7555e+04   5.20e-19
  3.8625e+04   5.00e-19
  3.9724e+04   4.82e-19
  4.0855e+04   4.64e-19
  4.2019e+04   4.47e-19
  4.3215e+04   4.30e-19
  4.4446e+04   4.14e-19
  4.5711e+04   3.98e-19
  4.7013e+04   3.83e-19
  4.8352e+04   3.69e-19
  4.9728e+04   3.55e-19
  5.1144e+04   3.41e-19
  5.2601e+04   3.28e-19
  5.4099e+04   3.16e-19
  5.5639e+04   3.04e-19
  5.7223e+04   2.92e-19
  5.8853e+04   2.81e-19
  6.0528e+04   2.70e-19
  6.2252e+04   2.59e-19
  6.4025e+04   2.49e-19
  6.5848e+04   2.39e-19
  6.7723e+04   2.30e-19
  6.9651e+04   2.21e-19
  7.1634e+04   2.12e-19
  7.3674e+04   2.03e-19
  7.5772e+04   1.95e-19
  7.7929e+04   1.87e-19
  8.0148e+04   1.79e-19
  8.2431e+04   1.72e-19
  8.4778e+04   1.65e-19
  8.7192e+04   1.58e-19
  8.9674e+04   1.51e-19
  9.2228e+04   1.45e-19
  9.4854e+04   1.39e-19
  9.7555e+04   1.33e-19
  1.0033e+05   1.27e-19
  1.0319e+05   1.21e-19
  1.0613e+05   1.16e-19
  1.0915e+05   1.11e-19
  1.1226e+05   1.06e-19
  1.1545e+05   1.01e-19
  1.1874e+05   9.63e-20
  1.2212e+05   9.18e-20
  1.2560e+05   8.76e-20
  1.2918e+05   8.36e-20
  1.3286e+05   7.97e-20
  1.3664e+05   7.60e-20
  1.4053e+05   7.25e-20
  1.4453e+05   6.91e-20
  1.4865e+05   6.59e-20
  1.5288e+05   6.28e-20
  1.5723e+05   5.98e-20
  1.6171e+05   5.70e-20
  1.6631e+05   5.43e-20
  1.7105e+05   5.17e-20
  1.7592e+05   4.92e-20
  1.8093e+05   4.69e-20
  1.8608e+05   4.46e-20
  1.9138e+05   4.24e-20
  1.9683e+05   4.03e-20
  2.0243e+05   3.83e-20
  2.0820e+05   3.64e-20
  2.1413e+05   3.45e-20
  2.2022e+05   3.28e-20
  2.2649e+05   3.11e-20
  2.3294e+05   2.95e-20
  2.3958e+05   2.80e-20
  2.4640e+05   2.65e-20
  2.5341e+05   2.51e-20
  2.6063e+05   2.37e-20
  2.6805e+05   2.25e-20
  2.7568e+05   2.12e-20
  2.8353e+05   2.01e-20
  2.9161e+05   1.90e-20
  2.9991e+05   1.79e-20
  3.0845e+05   1.69e-20
  3.1723e+05   1.60e-20
  3.2627e+05   1.51e-20
  3.3556e+05   1.42e-20
  3.4511e+05   1.34e-20
  3.5494e+05   1.26e-20
  3.6504e+05   1.19e-20
  3.7544e+05   1.12e-20
  3.8613e+05   1.05e-20
  3.9712e+05   9.84e-21
  4.0843e+05   9.24e-21
  4.2006e+05   8.67e-21
  4.3202e+05   8.13e-21
  4.4432e+05   7.61e-21
  4.5698e+05   7.13e-21
  4.6999e+05   6.67e-21
  4.8337e+05   6.23e-21
  4.9713e+05   5.82e-21
  5.1129e+05   5.44e-21
  5.2585e+05   5.07e-21
  5.4082e+05   4.73e-21
  5.5622e+05   4.40e-21
  5.7206e+05   4.10e-21
  5.8835e+05   3.82e-21
  6.0510e+05   3.55e-21
  6.2233e+05   3.29e-21
  6.4005e+05   3.05e-21
  6.5828e+05   2.84e-21
  6.7702e+05   2.63e-21
  6.9630e+05   2.43e-21
  7.1613e+05   2.25e-21
  7.3652e+05   2.08e-21
  7.5749e+05   1.92e-21
  7.7906e+05   1.77e-21
  8.0124e+05   1.63e-21
  8.2406e+05   1.50e-21
  8.4752e+05   1.38e-21
  8.7165e+05   1.27e-21
  8.9647e+05   1.16e-21
  9.2200e+05   1.07e-21
  9.4825e+05   9.78e-22
  9.7526e+05   8.93e-22
  1.0030e+06   8.15e-22
  1.0316e+06   7.47e-22
  1.0610e+06   6.82e-22
  1.0912e+06   6.21e-22
  1.1222e+06   5.64e-22
  1.1542e+06   5.15e-22
  1.1871e+06   4.69e-22
  1.2209e+06   4.25e-22
  1.2556e+06   3.84e-22
  1.2914e+06   3.50e-22
  1.3281e+06   3.17e-22
  1.3660e+06   2.86e-22
  1.4049e+06   2.57e-22
  1.4449e+06   2.34e-22
  1.4860e+06   2.11e-22
  1.5283e+06   1.90e-22
  1.5718e+06   1.70e-22
  1.6166e+06   1.54e-22
  1.6626e+06   1.38e-22
  1.7100e+06   1.24e-22
  1.7587e+06   1.10e-22
  1.8087e+06   9.88e-23
  1.8602e+06   8.87e-23
  1.9132e+06   7.91e-23
  1.9677e+06   7.00e-23
  2.0237e+06   6.26e-23
  2.0813e+06   5.60e-23
  2.1406e+06   4.98e-23
  2.2016e+06   4.39e-23
  2.2642e+06   3.91e-23
  2.3287e+06   3.49e-23
  2.3950e+06   3.09e-23
  2.4632e+06   2.72e-23
  2.5334e+06   2.40e-23
  2.6055e+06   2.14e-23
  2.6797e+06   1.89e-23
  2.7560e+06   1.65e-23
  2.8345e+06   1.45e-23
  2.9152e+06   1.29e-23
  2.9982e+06   1.14e-23
  3.0836e+06   9.97e-24
  3.1714e+06   8.71e-24
  3.2617e+06   7.75e-24
  3.3545e+06   6.83e-24
  3.4501e+06   5.96e-24
  3.5483e+06   5.19e-24
  3.6493e+06   4.62e-24
  3.7532e+06   4.09e-24
  3.8601e+06   3.58e-24
  3.9700e+06   3.11e-24
  4.0831e+06   2.79e-24
  4.1993e+06   2.48e-24
  4.3189e+06   2.19e-24
  4.4419e+06   1.91e-24
  4.5684e+06   1.73e-24
  4.6985e+06   1.55e-24
  4.8322e+06   1.38e-24
  4.9698e+06   1.21e-24
  5.1114e+06   1.10e-24
  5.2569e+06   1.00e-24
  5.4066e+06   9.02e-25
  5.5605e+06   8.09e-25
  5.7189e+06   7.40e-25
  5.8817e+06   6.78e-25
  6.0492e+06   6.20e-25
  6.2214e+06   5.64e-25
  6.3986e+06   5.17e-25
  6.5808e+06   4.76e-25
  6.7682e+06   4.36e-25
  6.9609e+06   3.98e-25
  7.1591e+06   3.64e-25
  7.3630e+06   3.32e-25
  7.5726e+06   3.02e-25
  7.7882e+06   2.73e-25
  8.0100e+06   2.49e-25
