#  E [MeV]   Flux [# cm^{-2} s^{-1}  MeV^{-1}]
  3.0000e+04   4.69e-23
  3.0607e+04   4.53e-23
  3.1227e+04   4.38e-23
  3.1859e+04   4.22e-23
  3.2504e+04   4.08e-23
  3.3163e+04   3.93e-23
  3.3834e+04   3.80e-23
  3.4519e+04   3.66e-23
  3.5218e+04   3.53e-23
  3.5931e+04   3.41e-23
  3.6659e+04   3.28e-23
  3.7401e+04   3.17e-23
  3.8158e+04   3.05e-23
  3.8931e+04   2.94e-23
  3.9719e+04   2.83e-23
  4.0523e+04   2.73e-23
  4.1344e+04   2.62e-23
  4.2181e+04   2.52e-23
  4.3035e+04   2.43e-23
  4.3906e+04   2.34e-23
  4.4795e+04   2.25e-23
  4.5702e+04   2.16e-23
  4.6628e+04   2.08e-23
  4.7572e+04   2.00e-23
  4.8535e+04   1.92e-23
  4.9517e+04   1.84e-23
  5.0520e+04   1.77e-23
  5.1543e+04   1.70e-23
  5.2587e+04   1.63e-23
  5.3651e+04   1.57e-23
  5.4738e+04   1.50e-23
  5.5846e+04   1.44e-23
  5.6977e+04   1.38e-23
  5.8130e+04   1.33e-23
  5.9307e+04   1.27e-23
  6.0508e+04   1.22e-23
  6.1733e+04   1.17e-23
  6.2983e+04   1.12e-23
  6.4258e+04   1.07e-23
  6.5559e+04   1.03e-23
  6.6887e+04   9.81e-24
  6.8241e+04   9.38e-24
  6.9623e+04   8.98e-24
  7.1033e+04   8.59e-24
  7.2471e+04   8.22e-24
  7.3938e+04   7.85e-24
  7.5435e+04   7.50e-24
  7.6963e+04   7.16e-24
  7.8521e+04   6.84e-24
  8.0111e+04   6.53e-24
  8.1733e+04   6.23e-24
  8.3388e+04   5.95e-24
  8.5076e+04   5.66e-24
  8.6799e+04   5.40e-24
  8.8556e+04   5.15e-24
  9.0349e+04   4.91e-24
  9.2178e+04   4.67e-24
  9.4045e+04   4.45e-24
  9.5949e+04   4.23e-24
  9.7892e+04   4.03e-24
  9.9874e+04   3.83e-24
  1.0190e+05   3.65e-24
  1.0396e+05   3.47e-24
  1.0606e+05   3.29e-24
  1.0821e+05   3.12e-24
  1.1040e+05   2.97e-24
  1.1264e+05   2.82e-24
  1.1492e+05   2.68e-24
  1.1725e+05   2.54e-24
  1.1962e+05   2.41e-24
  1.2204e+05   2.28e-24
  1.2451e+05   2.16e-24
  1.2703e+05   2.05e-24
  1.2961e+05   1.94e-24
  1.3223e+05   1.84e-24
  1.3491e+05   1.74e-24
  1.3764e+05   1.64e-24
  1.4043e+05   1.55e-24
  1.4327e+05   1.47e-24
  1.4617e+05   1.39e-24
  1.4913e+05   1.31e-24
  1.5215e+05   1.24e-24
  1.5523e+05   1.17e-24
  1.5837e+05   1.10e-24
  1.6158e+05   1.04e-24
  1.6485e+05   9.79e-25
  1.6819e+05   9.21e-25
  1.7159e+05   8.65e-25
  1.7507e+05   8.16e-25
  1.7861e+05   7.69e-25
  1.8223e+05   7.24e-25
  1.8592e+05   6.80e-25
  1.8968e+05   6.38e-25
  1.9352e+05   5.97e-25
  1.9744e+05   5.63e-25
  2.0144e+05   5.29e-25
  2.0552e+05   4.97e-25
  2.0968e+05   4.65e-25
  2.1392e+05   4.35e-25
  2.1826e+05   4.07e-25
  2.2267e+05   3.82e-25
  2.2718e+05   3.59e-25
  2.3178e+05   3.36e-25
  2.3648e+05   3.14e-25
  2.4126e+05   2.92e-25
  2.4615e+05   2.73e-25
  2.5113e+05   2.56e-25
  2.5622e+05   2.40e-25
  2.6141e+05   2.24e-25
  2.6670e+05   2.08e-25
  2.7210e+05   1.94e-25
  2.7761e+05   1.81e-25
  2.8323e+05   1.69e-25
  2.8896e+05   1.58e-25
  2.9481e+05   1.47e-25
  3.0078e+05   1.36e-25
  3.0687e+05   1.26e-25
  3.1309e+05   1.18e-25
  3.1943e+05   1.10e-25
  3.2589e+05   1.02e-25
  3.3249e+05   9.49e-26
  3.3922e+05   8.77e-26
  3.4609e+05   8.12e-26
  3.5310e+05   7.57e-26
  3.6025e+05   7.04e-26
  3.6754e+05   6.53e-26
  3.7498e+05   6.04e-26
  3.8258e+05   5.57e-26
  3.9032e+05   5.16e-26
  3.9823e+05   4.80e-26
  4.0629e+05   4.45e-26
  4.1452e+05   4.12e-26
  4.2291e+05   3.80e-26
  4.3147e+05   3.49e-26
  4.4021e+05   3.24e-26
  4.4912e+05   3.01e-26
  4.5821e+05   2.78e-26
  4.6749e+05   2.57e-26
  4.7696e+05   2.36e-26
  4.8661e+05   2.17e-26
  4.9647e+05   2.02e-26
  5.0652e+05   1.87e-26
  5.1678e+05   1.73e-26
  5.2724e+05   1.59e-26
  5.3791e+05   1.46e-26
  5.4881e+05   1.34e-26
  5.5992e+05   1.25e-26
  5.7125e+05   1.15e-26
  5.8282e+05   1.06e-26
  5.9462e+05   9.76e-27
  6.0666e+05   8.95e-27
  6.1894e+05   8.26e-27
  6.3148e+05   7.65e-27
  6.4426e+05   7.07e-27
  6.5731e+05   6.52e-27
  6.7061e+05   5.99e-27
  6.8419e+05   5.48e-27
  6.9805e+05   5.07e-27
  7.1218e+05   4.69e-27
  7.2660e+05   4.33e-27
  7.4131e+05   3.98e-27
  7.5632e+05   3.65e-27
  7.7163e+05   3.34e-27
  7.8726e+05   3.10e-27
  8.0320e+05   2.87e-27
  8.1946e+05   2.65e-27
  8.3605e+05   2.44e-27
  8.5298e+05   2.25e-27
  8.7025e+05   2.07e-27
  8.8787e+05   1.93e-27
  9.0585e+05   1.80e-27
  9.2419e+05   1.67e-27
  9.4290e+05   1.55e-27
  9.6199e+05   1.43e-27
  9.8147e+05   1.34e-27
  1.0013e+06   1.26e-27
  1.0216e+06   1.19e-27
  1.0423e+06   1.12e-27
  1.0634e+06   1.05e-27
  1.0849e+06   9.87e-28
  1.1069e+06   9.42e-28
  1.1293e+06   9.00e-28
  1.1522e+06   8.60e-28
  1.1755e+06   8.21e-28
  1.1993e+06   7.84e-28
  1.2236e+06   7.50e-28
  1.2484e+06   7.26e-28
  1.2736e+06   7.03e-28
  1.2994e+06   6.81e-28
  1.3257e+06   6.59e-28
  1.3526e+06   6.38e-28
  1.3800e+06   6.20e-28
  1.4079e+06   6.04e-28
  1.4364e+06   5.89e-28
  1.4655e+06   5.75e-28
  1.4952e+06   5.61e-28
  1.5255e+06   5.47e-28
  1.5563e+06   5.34e-28
  1.5879e+06   5.21e-28
  1.6200e+06   5.09e-28
