#  E [MeV]   Flux [# cm^{-2} s^{-1}  MeV^{-1}]
  3.0000e+04   9.18e-27
  3.1141e+04   8.84e-27
  3.2326e+04   8.50e-27
  3.3556e+04   8.18e-27
  3.4832e+04   7.87e-27
  3.6157e+04   7.57e-27
  3.7533e+04   7.27e-27
  3.8961e+04   6.99e-27
  4.0443e+04   6.72e-27
  4.1982e+04   6.45e-27
  4.3579e+04   6.20e-27
  4.5237e+04   5.95e-27
  4.6958e+04   5.72e-27
  4.8744e+04   5.49e-27
  5.0598e+04   5.27e-27
  5.2523e+04   5.05e-27
  5.4521e+04   4.85e-27
  5.6596e+04   4.65e-27
  5.8749e+04   4.46e-27
  6.0984e+04   4.28e-27
  6.3304e+04   4.10e-27
  6.5712e+04   3.93e-27
  6.8212e+04   3.76e-27
  7.0807e+04   3.61e-27
  7.3500e+04   3.45e-27
  7.6297e+04   3.31e-27
  7.9199e+04   3.17e-27
  8.2212e+04   3.03e-27
  8.5340e+04   2.90e-27
  8.8586e+04   2.77e-27
  9.1956e+04   2.65e-27
  9.5455e+04   2.54e-27
  9.9086e+04   2.43e-27
  1.0286e+05   2.32e-27
  1.0677e+05   2.22e-27
  1.1083e+05   2.12e-27
  1.1505e+05   2.02e-27
  1.1942e+05   1.93e-27
  1.2397e+05   1.84e-27
  1.2868e+05   1.76e-27
  1.3358e+05   1.68e-27
  1.3866e+05   1.60e-27
  1.4394e+05   1.53e-27
  1.4941e+05   1.46e-27
  1.5509e+05   1.39e-27
  1.6100e+05   1.32e-27
  1.6712e+05   1.26e-27
  1.7348e+05   1.20e-27
  1.8008e+05   1.14e-27
  1.8693e+05   1.09e-27
  1.9404e+05   1.04e-27
  2.0142e+05   9.86e-28
  2.0908e+05   9.38e-28
  2.1704e+05   8.92e-28
  2.2529e+05   8.48e-28
  2.3387e+05   8.06e-28
  2.4276e+05   7.66e-28
  2.5200e+05   7.28e-28
  2.6158e+05   6.91e-28
  2.7154e+05   6.56e-28
  2.8187e+05   6.23e-28
  2.9259e+05   5.91e-28
  3.0372e+05   5.60e-28
  3.1527e+05   5.31e-28
  3.2727e+05   5.04e-28
  3.3972e+05   4.77e-28
  3.5264e+05   4.53e-28
  3.6606e+05   4.29e-28
  3.7998e+05   4.06e-28
  3.9444e+05   3.85e-28
  4.0945e+05   3.64e-28
  4.2502e+05   3.45e-28
  4.4119e+05   3.26e-28
  4.5798e+05   3.09e-28
  4.7540e+05   2.92e-28
  4.9348e+05   2.76e-28
  5.1226e+05   2.61e-28
  5.3175e+05   2.47e-28
  5.5198e+05   2.34e-28
  5.7297e+05   2.21e-28
  5.9477e+05   2.09e-28
  6.1740e+05   1.98e-28
  6.4089e+05   1.87e-28
  6.6527e+05   1.77e-28
  6.9058e+05   1.68e-28
  7.1685e+05   1.59e-28
  7.4412e+05   1.51e-28
  7.7243e+05   1.43e-28
  8.0181e+05   1.36e-28
  8.3232e+05   1.29e-28
  8.6398e+05   1.22e-28
  8.9685e+05   1.16e-28
  9.3097e+05   1.11e-28
  9.6638e+05   1.05e-28
  1.0031e+06   1.00e-28
  1.0413e+06   9.54e-29
  1.0809e+06   9.10e-29
  1.1220e+06   8.68e-29
  1.1647e+06   8.29e-29
  1.2090e+06   7.92e-29
  1.2550e+06   7.57e-29
  1.3028e+06   7.25e-29
  1.3523e+06   6.94e-29
  1.4038e+06   6.65e-29
  1.4572e+06   6.37e-29
  1.5126e+06   6.12e-29
  1.5702e+06   5.87e-29
  1.6299e+06   5.64e-29
  1.6919e+06   5.42e-29
  1.7563e+06   5.22e-29
  1.8231e+06   5.02e-29
  1.8925e+06   4.83e-29
  1.9645e+06   4.65e-29
  2.0392e+06   4.48e-29
  2.1168e+06   4.32e-29
  2.1973e+06   4.16e-29
  2.2809e+06   4.01e-29
  2.3677e+06   3.87e-29
  2.4577e+06   3.73e-29
  2.5512e+06   3.59e-29
  2.6483e+06   3.46e-29
  2.7490e+06   3.33e-29
  2.8536e+06   3.21e-29
  2.9622e+06   3.09e-29
  3.0749e+06   2.97e-29
  3.1918e+06   2.85e-29
  3.3133e+06   2.74e-29
  3.4393e+06   2.63e-29
  3.5702e+06   2.52e-29
  3.7060e+06   2.41e-29
  3.8470e+06   2.31e-29
  3.9933e+06   2.20e-29
  4.1452e+06   2.10e-29
  4.3029e+06   2.00e-29
  4.4666e+06   1.90e-29
  4.6366e+06   1.81e-29
  4.8129e+06   1.71e-29
  4.9960e+06   1.62e-29
  5.1861e+06   1.53e-29
  5.3834e+06   1.44e-29
  5.5882e+06   1.35e-29
  5.8008e+06   1.26e-29
  6.0215e+06   1.18e-29
  6.2506e+06   1.10e-29
  6.4883e+06   1.02e-29
  6.7352e+06   9.39e-30
  6.9914e+06   8.63e-30
  7.2574e+06   7.91e-30
  7.5335e+06   7.22e-30
  7.8201e+06   6.55e-30
  8.1176e+06   5.91e-30
  8.4264e+06   5.31e-30
  8.7470e+06   4.74e-30
  9.0797e+06   4.20e-30
  9.4251e+06   3.70e-30
  9.7837e+06   3.22e-30
  1.0156e+07   2.79e-30
  1.0542e+07   2.39e-30
  1.0943e+07   2.03e-30
  1.1360e+07   1.70e-30
  1.1792e+07   1.41e-30
  1.2240e+07   1.15e-30
  1.2706e+07   9.24e-31
  1.3189e+07   7.32e-31
  1.3691e+07   5.69e-31
  1.4212e+07   4.33e-31
  1.4753e+07   3.23e-31
  1.5314e+07   2.34e-31
  1.5897e+07   1.66e-31
  1.6501e+07   1.13e-31
  1.7129e+07   7.49e-32
  1.7781e+07   4.76e-32
  1.8457e+07   2.89e-32
  1.9159e+07   1.66e-32
  1.9888e+07   9.04e-33
  2.0645e+07   4.60e-33
  2.1430e+07   2.16e-33
  2.2245e+07   9.33e-34
  2.3092e+07   3.64e-34
  2.3970e+07   1.26e-34
  2.4882e+07   3.81e-35
  2.5829e+07   9.79e-36
  2.6811e+07   2.09e-36
  2.7831e+07   3.58e-37
  2.8890e+07   4.70e-38
  2.9989e+07   4.50e-39
  3.1130e+07   2.98e-40
  3.2314e+07   1.25e-41
  3.3544e+07   2.99e-43
  3.4820e+07   3.73e-45
  3.6144e+07   2.03e-47
  3.7519e+07   3.97e-50
  3.8947e+07   2.25e-53
  4.0428e+07   2.61e-57
  4.1966e+07   4.08e-62
  4.3563e+07   5.20e-68
  4.5220e+07   4.08e-71
  4.6941e+07   3.55e-71
  4.8726e+07   3.21e-71
  5.0580e+07   2.94e-71
