#  E [MeV]   Flux [# cm^{-2} s^{-1}  MeV^{-1}]
  3.0000e+04   1.32e-24
  3.0962e+04   1.27e-24
  3.1955e+04   1.22e-24
  3.2979e+04   1.17e-24
  3.4037e+04   1.12e-24
  3.5128e+04   1.08e-24
  3.6254e+04   1.03e-24
  3.7417e+04   9.90e-25
  3.8616e+04   9.50e-25
  3.9855e+04   9.10e-25
  4.1132e+04   8.73e-25
  4.2451e+04   8.37e-25
  4.3812e+04   8.02e-25
  4.5217e+04   7.68e-25
  4.6667e+04   7.36e-25
  4.8163e+04   7.05e-25
  4.9707e+04   6.75e-25
  5.1301e+04   6.46e-25
  5.2946e+04   6.18e-25
  5.4644e+04   5.92e-25
  5.6396e+04   5.66e-25
  5.8204e+04   5.42e-25
  6.0070e+04   5.18e-25
  6.1996e+04   4.95e-25
  6.3984e+04   4.73e-25
  6.6035e+04   4.52e-25
  6.8153e+04   4.32e-25
  7.0338e+04   4.13e-25
  7.2593e+04   3.94e-25
  7.4921e+04   3.76e-25
  7.7323e+04   3.59e-25
  7.9802e+04   3.43e-25
  8.2361e+04   3.27e-25
  8.5002e+04   3.12e-25
  8.7727e+04   2.97e-25
  9.0540e+04   2.84e-25
  9.3443e+04   2.70e-25
  9.6439e+04   2.57e-25
  9.9531e+04   2.45e-25
  1.0272e+05   2.33e-25
  1.0602e+05   2.22e-25
  1.0942e+05   2.11e-25
  1.1292e+05   2.00e-25
  1.1654e+05   1.90e-25
  1.2028e+05   1.81e-25
  1.2414e+05   1.72e-25
  1.2812e+05   1.63e-25
  1.3223e+05   1.54e-25
  1.3646e+05   1.46e-25
  1.4084e+05   1.39e-25
  1.4536e+05   1.31e-25
  1.5002e+05   1.24e-25
  1.5483e+05   1.18e-25
  1.5979e+05   1.11e-25
  1.6491e+05   1.05e-25
  1.7020e+05   9.95e-26
  1.7566e+05   9.39e-26
  1.8129e+05   8.86e-26
  1.8710e+05   8.36e-26
  1.9310e+05   7.88e-26
  1.9929e+05   7.42e-26
  2.0568e+05   6.99e-26
  2.1228e+05   6.58e-26
  2.1909e+05   6.18e-26
  2.2611e+05   5.81e-26
  2.3336e+05   5.45e-26
  2.4084e+05   5.12e-26
  2.4856e+05   4.80e-26
  2.5653e+05   4.49e-26
  2.6476e+05   4.20e-26
  2.7325e+05   3.93e-26
  2.8201e+05   3.67e-26
  2.9105e+05   3.42e-26
  3.0038e+05   3.19e-26
  3.1002e+05   2.98e-26
  3.1996e+05   2.77e-26
  3.3021e+05   2.57e-26
  3.4080e+05   2.39e-26
  3.5173e+05   2.22e-26
  3.6301e+05   2.06e-26
  3.7465e+05   1.90e-26
  3.8666e+05   1.76e-26
  3.9905e+05   1.62e-26
  4.1185e+05   1.50e-26
  4.2506e+05   1.38e-26
  4.3868e+05   1.27e-26
  4.5275e+05   1.17e-26
  4.6727e+05   1.07e-26
  4.8225e+05   9.85e-27
  4.9771e+05   9.02e-27
  5.1367e+05   8.25e-27
  5.3014e+05   7.55e-27
  5.4714e+05   6.90e-27
  5.6468e+05   6.30e-27
  5.8278e+05   5.74e-27
  6.0147e+05   5.23e-27
  6.2075e+05   4.76e-27
  6.4066e+05   4.33e-27
  6.6120e+05   3.93e-27
  6.8240e+05   3.57e-27
  7.0428e+05   3.24e-27
  7.2686e+05   2.93e-27
  7.5017e+05   2.65e-27
  7.7422e+05   2.40e-27
  7.9904e+05   2.17e-27
  8.2466e+05   1.96e-27
  8.5110e+05   1.77e-27
  8.7839e+05   1.60e-27
  9.0656e+05   1.44e-27
  9.3562e+05   1.30e-27
  9.6562e+05   1.17e-27
  9.9658e+05   1.05e-27
  1.0285e+06   9.45e-28
  1.0615e+06   8.51e-28
  1.0956e+06   7.66e-28
  1.1307e+06   6.88e-28
  1.1669e+06   6.17e-28
  1.2043e+06   5.56e-28
  1.2430e+06   4.99e-28
  1.2828e+06   4.47e-28
  1.3239e+06   4.02e-28
  1.3664e+06   3.61e-28
  1.4102e+06   3.24e-28
  1.4554e+06   2.89e-28
  1.5021e+06   2.60e-28
  1.5502e+06   2.33e-28
  1.6000e+06   2.08e-28
  1.6513e+06   1.86e-28
  1.7042e+06   1.67e-28
  1.7588e+06   1.49e-28
  1.8152e+06   1.33e-28
  1.8734e+06   1.19e-28
  1.9335e+06   1.06e-28
  1.9955e+06   9.45e-29
  2.0595e+06   8.38e-29
  2.1255e+06   7.50e-29
  2.1937e+06   6.69e-29
  2.2640e+06   5.93e-29
  2.3366e+06   5.26e-29
  2.4115e+06   4.69e-29
  2.4888e+06   4.16e-29
  2.5686e+06   3.67e-29
  2.6510e+06   3.25e-29
  2.7360e+06   2.89e-29
  2.8237e+06   2.55e-29
  2.9142e+06   2.23e-29
  3.0077e+06   1.98e-29
  3.1041e+06   1.75e-29
  3.2036e+06   1.53e-29
  3.3064e+06   1.34e-29
  3.4124e+06   1.18e-29
  3.5218e+06   1.03e-29
  3.6347e+06   8.97e-30
  3.7512e+06   7.87e-30
  3.8715e+06   6.90e-30
  3.9957e+06   5.99e-30
  4.1238e+06   5.17e-30
  4.2560e+06   4.54e-30
  4.3924e+06   3.95e-30
  4.5333e+06   3.40e-30
  4.6786e+06   2.94e-30
  4.8286e+06   2.56e-30
  4.9835e+06   2.21e-30
  5.1433e+06   1.89e-30
  5.3082e+06   1.64e-30
  5.4784e+06   1.41e-30
  5.6540e+06   1.21e-30
  5.8353e+06   1.03e-30
  6.0224e+06   8.93e-31
  6.2155e+06   7.67e-31
  6.4148e+06   6.53e-31
  6.6205e+06   5.58e-31
  6.8327e+06   4.79e-31
  7.0518e+06   4.08e-31
  7.2779e+06   3.45e-31
  7.5113e+06   2.94e-31
  7.7521e+06   2.49e-31
  8.0007e+06   2.09e-31
  8.2572e+06   1.75e-31
  8.5219e+06   1.47e-31
  8.7952e+06   1.22e-31
  9.0772e+06   1.01e-31
  9.3682e+06   8.29e-32
  9.6686e+06   6.79e-32
  9.9786e+06   5.51e-32
  1.0299e+07   4.41e-32
  1.0629e+07   3.52e-32
  1.0970e+07   2.77e-32
  1.1321e+07   2.15e-32
  1.1684e+07   1.65e-32
  1.2059e+07   1.24e-32
  1.2446e+07   9.20e-33
  1.2845e+07   6.68e-33
  1.3256e+07   4.74e-33
  1.3681e+07   3.28e-33
  1.4120e+07   2.21e-33
  1.4573e+07   1.45e-33
  1.5040e+07   9.43e-34
  1.5522e+07   5.94e-34
  1.6020e+07   3.61e-34
