#  E [MeV]   Flux [# cm^{-2} s^{-1}  MeV^{-1}]
  3.0000e+04   7.41e-26
  3.1232e+04   7.08e-26
  3.2514e+04   6.77e-26
  3.3849e+04   6.47e-26
  3.5238e+04   6.18e-26
  3.6685e+04   5.91e-26
  3.8191e+04   5.64e-26
  3.9759e+04   5.39e-26
  4.1391e+04   5.15e-26
  4.3090e+04   4.92e-26
  4.4859e+04   4.70e-26
  4.6701e+04   4.49e-26
  4.8618e+04   4.28e-26
  5.0614e+04   4.09e-26
  5.2692e+04   3.90e-26
  5.4855e+04   3.73e-26
  5.7107e+04   3.56e-26
  5.9451e+04   3.40e-26
  6.1892e+04   3.24e-26
  6.4433e+04   3.09e-26
  6.7078e+04   2.95e-26
  6.9832e+04   2.81e-26
  7.2699e+04   2.68e-26
  7.5683e+04   2.56e-26
  7.8790e+04   2.44e-26
  8.2025e+04   2.33e-26
  8.5392e+04   2.22e-26
  8.8898e+04   2.11e-26
  9.2547e+04   2.01e-26
  9.6347e+04   1.92e-26
  1.0030e+05   1.83e-26
  1.0442e+05   1.74e-26
  1.0871e+05   1.66e-26
  1.1317e+05   1.58e-26
  1.1782e+05   1.50e-26
  1.2265e+05   1.43e-26
  1.2769e+05   1.36e-26
  1.3293e+05   1.29e-26
  1.3839e+05   1.23e-26
  1.4407e+05   1.17e-26
  1.4998e+05   1.11e-26
  1.5614e+05   1.05e-26
  1.6255e+05   9.99e-27
  1.6922e+05   9.48e-27
  1.7617e+05   8.99e-27
  1.8340e+05   8.52e-27
  1.9093e+05   8.08e-27
  1.9877e+05   7.65e-27
  2.0693e+05   7.24e-27
  2.1543e+05   6.85e-27
  2.2427e+05   6.48e-27
  2.3348e+05   6.12e-27
  2.4306e+05   5.79e-27
  2.5304e+05   5.46e-27
  2.6343e+05   5.15e-27
  2.7424e+05   4.86e-27
  2.8550e+05   4.57e-27
  2.9722e+05   4.30e-27
  3.0942e+05   4.04e-27
  3.2213e+05   3.80e-27
  3.3535e+05   3.56e-27
  3.4912e+05   3.34e-27
  3.6345e+05   3.13e-27
  3.7837e+05   2.93e-27
  3.9390e+05   2.74e-27
  4.1008e+05   2.56e-27
  4.2691e+05   2.39e-27
  4.4444e+05   2.23e-27
  4.6268e+05   2.08e-27
  4.8168e+05   1.93e-27
  5.0145e+05   1.80e-27
  5.2204e+05   1.67e-27
  5.4347e+05   1.55e-27
  5.6578e+05   1.44e-27
  5.8901e+05   1.33e-27
  6.1319e+05   1.23e-27
  6.3836e+05   1.14e-27
  6.6457e+05   1.05e-27
  6.9185e+05   9.74e-28
  7.2025e+05   9.00e-28
  7.4982e+05   8.30e-28
  7.8061e+05   7.66e-28
  8.1265e+05   7.06e-28
  8.4601e+05   6.51e-28
  8.8075e+05   6.00e-28
  9.1690e+05   5.53e-28
  9.5455e+05   5.09e-28
  9.9373e+05   4.69e-28
  1.0345e+06   4.32e-28
  1.0770e+06   3.98e-28
  1.1212e+06   3.66e-28
  1.1672e+06   3.37e-28
  1.2152e+06   3.10e-28
  1.2650e+06   2.86e-28
  1.3170e+06   2.63e-28
  1.3711e+06   2.42e-28
  1.4273e+06   2.23e-28
  1.4859e+06   2.05e-28
  1.5469e+06   1.89e-28
  1.6104e+06   1.74e-28
  1.6766e+06   1.60e-28
  1.7454e+06   1.47e-28
  1.8170e+06   1.36e-28
  1.8916e+06   1.25e-28
  1.9693e+06   1.15e-28
  2.0501e+06   1.06e-28
  2.1343e+06   9.71e-29
  2.2219e+06   8.93e-29
  2.3131e+06   8.20e-29
  2.4081e+06   7.52e-29
  2.5070e+06   6.90e-29
  2.6099e+06   6.32e-29
  2.7170e+06   5.79e-29
  2.8286e+06   5.30e-29
  2.9447e+06   4.84e-29
  3.0656e+06   4.42e-29
  3.1914e+06   4.04e-29
  3.3225e+06   3.68e-29
  3.4589e+06   3.35e-29
  3.6008e+06   3.04e-29
  3.7487e+06   2.76e-29
  3.9026e+06   2.50e-29
  4.0628e+06   2.26e-29
  4.2296e+06   2.04e-29
  4.4032e+06   1.84e-29
  4.5840e+06   1.65e-29
  4.7722e+06   1.48e-29
  4.9681e+06   1.32e-29
  5.1720e+06   1.18e-29
  5.3844e+06   1.05e-29
  5.6054e+06   9.30e-30
  5.8355e+06   8.21e-30
  6.0751e+06   7.23e-30
  6.3245e+06   6.35e-30
  6.5841e+06   5.55e-30
  6.8544e+06   4.83e-30
  7.1358e+06   4.19e-30
  7.4288e+06   3.61e-30
  7.7338e+06   3.10e-30
  8.0513e+06   2.65e-30
  8.3818e+06   2.24e-30
  8.7259e+06   1.89e-30
  9.0841e+06   1.58e-30
  9.4571e+06   1.31e-30
  9.8453e+06   1.08e-30
  1.0249e+07   8.77e-31
  1.0670e+07   7.05e-31
  1.1108e+07   5.63e-31
  1.1564e+07   4.43e-31
  1.2039e+07   3.43e-31
  1.2533e+07   2.63e-31
  1.3048e+07   1.97e-31
  1.3584e+07   1.45e-31
  1.4141e+07   1.05e-31
  1.4722e+07   7.38e-32
  1.5326e+07   5.06e-32
  1.5955e+07   3.37e-32
  1.6610e+07   2.16e-32
  1.7292e+07   1.33e-32
  1.8002e+07   7.87e-33
  1.8741e+07   4.39e-33
  1.9511e+07   2.32e-33
  2.0312e+07   1.15e-33
  2.1145e+07   5.19e-34
  2.2013e+07   2.16e-34
  2.2917e+07   8.05e-35
  2.3858e+07   2.63e-35
  2.4837e+07   7.43e-36
  2.5857e+07   1.75e-36
  2.6919e+07   3.32e-37
  2.8024e+07   4.91e-38
  2.9174e+07   5.30e-39
  3.0372e+07   3.93e-40
  3.1619e+07   1.86e-41
  3.2917e+07   4.96e-43
  3.4268e+07   6.63e-45
  3.5675e+07   3.74e-47
  3.7140e+07   7.09e-50
  3.8664e+07   3.42e-53
  4.0252e+07   2.87e-57
  4.1904e+07   2.54e-62
  4.3624e+07   1.23e-68
  4.5415e+07   1.84e-71
  4.7280e+07   1.76e-71
  4.9221e+07   1.70e-71
  5.1241e+07   1.65e-71
  5.3345e+07   1.60e-71
  5.5535e+07   1.60e-71
  5.7815e+07   1.60e-71
  6.0188e+07   1.61e-71
  6.2659e+07   1.68e-71
  6.5232e+07   1.74e-71
  6.7910e+07   1.85e-71
  7.0698e+07   2.09e-71
  7.3600e+07   2.30e-71
  7.6621e+07   2.90e-71
  7.9767e+07   3.90e-71
  8.3042e+07   4.83e-71
  8.6451e+07   6.53e-71
  9.0000e+07   8.68e-71
