#  E [MeV]   Flux [# cm^{-2} s^{-1}  MeV^{-1}]
  3.0000e+04   1.96e-25
  3.1141e+04   1.89e-25
  3.2326e+04   1.81e-25
  3.3556e+04   1.74e-25
  3.4832e+04   1.67e-25
  3.6157e+04   1.60e-25
  3.7533e+04   1.54e-25
  3.8961e+04   1.48e-25
  4.0443e+04   1.42e-25
  4.1982e+04   1.36e-25
  4.3579e+04   1.30e-25
  4.5237e+04   1.25e-25
  4.6958e+04   1.20e-25
  4.8744e+04   1.15e-25
  5.0598e+04   1.10e-25
  5.2523e+04   1.06e-25
  5.4521e+04   1.01e-25
  5.6596e+04   9.73e-26
  5.8749e+04   9.33e-26
  6.0984e+04   8.94e-26
  6.3304e+04   8.57e-26
  6.5712e+04   8.21e-26
  6.8212e+04   7.87e-26
  7.0807e+04   7.54e-26
  7.3500e+04   7.22e-26
  7.6297e+04   6.91e-26
  7.9199e+04   6.62e-26
  8.2212e+04   6.34e-26
  8.5340e+04   6.06e-26
  8.8586e+04   5.80e-26
  9.1956e+04   5.55e-26
  9.5455e+04   5.31e-26
  9.9086e+04   5.08e-26
  1.0286e+05   4.85e-26
  1.0677e+05   4.64e-26
  1.1083e+05   4.43e-26
  1.1505e+05   4.23e-26
  1.1942e+05   4.04e-26
  1.2397e+05   3.86e-26
  1.2868e+05   3.68e-26
  1.3358e+05   3.51e-26
  1.3866e+05   3.35e-26
  1.4394e+05   3.20e-26
  1.4941e+05   3.05e-26
  1.5509e+05   2.90e-26
  1.6100e+05   2.76e-26
  1.6712e+05   2.63e-26
  1.7348e+05   2.50e-26
  1.8008e+05   2.38e-26
  1.8693e+05   2.26e-26
  1.9404e+05   2.14e-26
  2.0142e+05   2.03e-26
  2.0908e+05   1.93e-26
  2.1704e+05   1.83e-26
  2.2529e+05   1.73e-26
  2.3387e+05   1.64e-26
  2.4276e+05   1.55e-26
  2.5200e+05   1.47e-26
  2.6158e+05   1.39e-26
  2.7154e+05   1.31e-26
  2.8187e+05   1.23e-26
  2.9259e+05   1.16e-26
  3.0372e+05   1.09e-26
  3.1527e+05   1.03e-26
  3.2727e+05   9.66e-27
  3.3972e+05   9.07e-27
  3.5264e+05   8.51e-27
  3.6606e+05   7.97e-27
  3.7998e+05   7.46e-27
  3.9444e+05   6.98e-27
  4.0945e+05   6.52e-27
  4.2502e+05   6.08e-27
  4.4119e+05   5.67e-27
  4.5798e+05   5.29e-27
  4.7540e+05   4.92e-27
  4.9348e+05   4.57e-27
  5.1226e+05   4.25e-27
  5.3175e+05   3.95e-27
  5.5198e+05   3.66e-27
  5.7297e+05   3.39e-27
  5.9477e+05   3.14e-27
  6.1740e+05   2.90e-27
  6.4089e+05   2.69e-27
  6.6527e+05   2.48e-27
  6.9058e+05   2.29e-27
  7.1685e+05   2.11e-27
  7.4412e+05   1.95e-27
  7.7243e+05   1.80e-27
  8.0181e+05   1.66e-27
  8.3232e+05   1.53e-27
  8.6398e+05   1.41e-27
  8.9685e+05   1.29e-27
  9.3097e+05   1.19e-27
  9.6638e+05   1.10e-27
  1.0031e+06   1.01e-27
  1.0413e+06   9.28e-28
  1.0809e+06   8.54e-28
  1.1220e+06   7.85e-28
  1.1647e+06   7.22e-28
  1.2090e+06   6.64e-28
  1.2550e+06   6.11e-28
  1.3028e+06   5.62e-28
  1.3523e+06   5.17e-28
  1.4038e+06   4.75e-28
  1.4572e+06   4.37e-28
  1.5126e+06   4.01e-28
  1.5702e+06   3.69e-28
  1.6299e+06   3.39e-28
  1.6919e+06   3.12e-28
  1.7563e+06   2.87e-28
  1.8231e+06   2.63e-28
  1.8925e+06   2.42e-28
  1.9645e+06   2.22e-28
  2.0392e+06   2.04e-28
  2.1168e+06   1.87e-28
  2.1973e+06   1.72e-28
  2.2809e+06   1.57e-28
  2.3677e+06   1.44e-28
  2.4577e+06   1.32e-28
  2.5512e+06   1.21e-28
  2.6483e+06   1.10e-28
  2.7490e+06   1.01e-28
  2.8536e+06   9.19e-29
  2.9622e+06   8.37e-29
  3.0749e+06   7.62e-29
  3.1918e+06   6.93e-29
  3.3133e+06   6.29e-29
  3.4393e+06   5.71e-29
  3.5702e+06   5.17e-29
  3.7060e+06   4.67e-29
  3.8470e+06   4.21e-29
  3.9933e+06   3.80e-29
  4.1452e+06   3.41e-29
  4.3029e+06   3.06e-29
  4.4666e+06   2.74e-29
  4.6366e+06   2.45e-29
  4.8129e+06   2.18e-29
  4.9960e+06   1.94e-29
  5.1861e+06   1.71e-29
  5.3834e+06   1.51e-29
  5.5882e+06   1.33e-29
  5.8008e+06   1.17e-29
  6.0215e+06   1.02e-29
  6.2506e+06   8.90e-30
  6.4883e+06   7.71e-30
  6.7352e+06   6.65e-30
  6.9914e+06   5.73e-30
  7.2574e+06   4.89e-30
  7.5335e+06   4.15e-30
  7.8201e+06   3.52e-30
  8.1176e+06   2.96e-30
  8.4264e+06   2.46e-30
  8.7470e+06   2.05e-30
  9.0797e+06   1.69e-30
  9.4251e+06   1.37e-30
  9.7837e+06   1.11e-30
  1.0156e+07   8.88e-31
  1.0542e+07   6.99e-31
  1.0943e+07   5.49e-31
  1.1360e+07   4.24e-31
  1.1792e+07   3.21e-31
  1.2240e+07   2.41e-31
  1.2706e+07   1.78e-31
  1.3189e+07   1.28e-31
  1.3691e+07   9.09e-32
  1.4212e+07   6.30e-32
  1.4753e+07   4.23e-32
  1.5314e+07   2.78e-32
  1.5897e+07   1.77e-32
  1.6501e+07   1.08e-32
  1.7129e+07   6.38e-33
  1.7781e+07   3.61e-33
  1.8457e+07   1.92e-33
  1.9159e+07   9.72e-34
  1.9888e+07   4.62e-34
  2.0645e+07   2.02e-34
  2.1430e+07   8.10e-35
  2.2245e+07   2.98e-35
  2.3092e+07   9.65e-36
  2.3970e+07   2.74e-36
  2.4882e+07   6.78e-37
  2.5829e+07   1.38e-37
  2.6811e+07   2.28e-38
  2.7831e+07   2.99e-39
  2.8890e+07   2.89e-40
  2.9989e+07   1.95e-41
  3.1130e+07   8.88e-43
  3.2314e+07   2.41e-44
  3.3544e+07   3.50e-46
  3.4820e+07   2.49e-48
  3.6144e+07   7.03e-51
  3.7519e+07   6.34e-54
  3.8947e+07   1.49e-57
  4.0428e+07   6.07e-62
  4.1966e+07   2.73e-67
  4.3563e+07   1.93e-72
  4.5220e+07   1.51e-72
  4.6941e+07   1.13e-72
  4.8726e+07   8.61e-73
  5.0580e+07   6.22e-73
