#  E [MeV]   Flux [# cm^{-2} s^{-1}  MeV^{-1}]
  3.0000e+04   1.23e-25
  3.1232e+04   1.18e-25
  3.2514e+04   1.13e-25
  3.3849e+04   1.08e-25
  3.5238e+04   1.03e-25
  3.6685e+04   9.88e-26
  3.8191e+04   9.45e-26
  3.9759e+04   9.04e-26
  4.1391e+04   8.65e-26
  4.3090e+04   8.27e-26
  4.4859e+04   7.91e-26
  4.6701e+04   7.56e-26
  4.8618e+04   7.23e-26
  5.0614e+04   6.91e-26
  5.2692e+04   6.61e-26
  5.4855e+04   6.31e-26
  5.7107e+04   6.03e-26
  5.9451e+04   5.77e-26
  6.1892e+04   5.51e-26
  6.4433e+04   5.27e-26
  6.7078e+04   5.03e-26
  6.9832e+04   4.81e-26
  7.2699e+04   4.59e-26
  7.5683e+04   4.39e-26
  7.8790e+04   4.19e-26
  8.2025e+04   4.00e-26
  8.5392e+04   3.82e-26
  8.8898e+04   3.65e-26
  9.2547e+04   3.48e-26
  9.6347e+04   3.33e-26
  1.0030e+05   3.17e-26
  1.0442e+05   3.03e-26
  1.0871e+05   2.89e-26
  1.1317e+05   2.76e-26
  1.1782e+05   2.63e-26
  1.2265e+05   2.51e-26
  1.2769e+05   2.39e-26
  1.3293e+05   2.28e-26
  1.3839e+05   2.17e-26
  1.4407e+05   2.07e-26
  1.4998e+05   1.97e-26
  1.5614e+05   1.88e-26
  1.6255e+05   1.79e-26
  1.6922e+05   1.70e-26
  1.7617e+05   1.62e-26
  1.8340e+05   1.54e-26
  1.9093e+05   1.46e-26
  1.9877e+05   1.39e-26
  2.0693e+05   1.32e-26
  2.1543e+05   1.26e-26
  2.2427e+05   1.19e-26
  2.3348e+05   1.13e-26
  2.4306e+05   1.07e-26
  2.5304e+05   1.02e-26
  2.6343e+05   9.64e-27
  2.7424e+05   9.13e-27
  2.8550e+05   8.63e-27
  2.9722e+05   8.17e-27
  3.0942e+05   7.72e-27
  3.2213e+05   7.29e-27
  3.3535e+05   6.88e-27
  3.4912e+05   6.49e-27
  3.6345e+05   6.12e-27
  3.7837e+05   5.76e-27
  3.9390e+05   5.42e-27
  4.1008e+05   5.10e-27
  4.2691e+05   4.80e-27
  4.4444e+05   4.50e-27
  4.6268e+05   4.23e-27
  4.8168e+05   3.97e-27
  5.0145e+05   3.72e-27
  5.2204e+05   3.48e-27
  5.4347e+05   3.26e-27
  5.6578e+05   3.05e-27
  5.8901e+05   2.85e-27
  6.1319e+05   2.66e-27
  6.3836e+05   2.48e-27
  6.6457e+05   2.31e-27
  6.9185e+05   2.15e-27
  7.2025e+05   2.01e-27
  7.4982e+05   1.87e-27
  7.8061e+05   1.74e-27
  8.1265e+05   1.62e-27
  8.4601e+05   1.50e-27
  8.8075e+05   1.39e-27
  9.1690e+05   1.29e-27
  9.5455e+05   1.20e-27
  9.9373e+05   1.11e-27
  1.0345e+06   1.03e-27
  1.0770e+06   9.58e-28
  1.1212e+06   8.88e-28
  1.1672e+06   8.22e-28
  1.2152e+06   7.61e-28
  1.2650e+06   7.05e-28
  1.3170e+06   6.52e-28
  1.3711e+06   6.04e-28
  1.4273e+06   5.58e-28
  1.4859e+06   5.17e-28
  1.5469e+06   4.77e-28
  1.6104e+06   4.41e-28
  1.6766e+06   4.08e-28
  1.7454e+06   3.77e-28
  1.8170e+06   3.48e-28
  1.8916e+06   3.21e-28
  1.9693e+06   2.96e-28
  2.0501e+06   2.73e-28
  2.1343e+06   2.52e-28
  2.2219e+06   2.32e-28
  2.3131e+06   2.13e-28
  2.4081e+06   1.96e-28
  2.5070e+06   1.80e-28
  2.6099e+06   1.66e-28
  2.7170e+06   1.52e-28
  2.8286e+06   1.39e-28
  2.9447e+06   1.28e-28
  3.0656e+06   1.17e-28
  3.1914e+06   1.07e-28
  3.3225e+06   9.74e-29
  3.4589e+06   8.87e-29
  3.6008e+06   8.09e-29
  3.7487e+06   7.36e-29
  3.9026e+06   6.68e-29
  4.0628e+06   6.07e-29
  4.2296e+06   5.49e-29
  4.4032e+06   4.96e-29
  4.5840e+06   4.48e-29
  4.7722e+06   4.03e-29
  4.9681e+06   3.63e-29
  5.1720e+06   3.26e-29
  5.3844e+06   2.91e-29
  5.6054e+06   2.60e-29
  5.8355e+06   2.32e-29
  6.0751e+06   2.06e-29
  6.3245e+06   1.83e-29
  6.5841e+06   1.62e-29
  6.8544e+06   1.43e-29
  7.1358e+06   1.26e-29
  7.4288e+06   1.10e-29
  7.7338e+06   9.60e-30
  8.0513e+06   8.38e-30
  8.3818e+06   7.26e-30
  8.7259e+06   6.25e-30
  9.0841e+06   5.38e-30
  9.4571e+06   4.59e-30
  9.8453e+06   3.90e-30
  1.0249e+07   3.30e-30
  1.0670e+07   2.76e-30
  1.1108e+07   2.30e-30
  1.1564e+07   1.91e-30
  1.2039e+07   1.56e-30
  1.2533e+07   1.27e-30
  1.3048e+07   1.02e-30
  1.3584e+07   8.08e-31
  1.4141e+07   6.36e-31
  1.4722e+07   4.92e-31
  1.5326e+07   3.73e-31
  1.5955e+07   2.80e-31
  1.6610e+07   2.06e-31
  1.7292e+07   1.47e-31
  1.8002e+07   1.03e-31
  1.8741e+07   6.95e-32
  1.9511e+07   4.53e-32
  2.0312e+07   2.86e-32
  2.1145e+07   1.71e-32
  2.2013e+07   9.73e-33
  2.2917e+07   5.23e-33
  2.3858e+07   2.59e-33
  2.4837e+07   1.18e-33
  2.5857e+07   4.89e-34
  2.6919e+07   1.77e-34
  2.8024e+07   5.59e-35
  2.9174e+07   1.48e-35
  3.0372e+07   3.13e-36
  3.1619e+07   5.17e-37
  3.2917e+07   6.17e-38
  3.4268e+07   4.88e-39
  3.5675e+07   2.40e-40
  3.7140e+07   6.24e-42
  3.8664e+07   7.31e-44
  4.0252e+07   3.19e-46
  4.1904e+07   3.76e-49
  4.3624e+07   8.18e-53
  4.5415e+07   1.99e-57
  4.7280e+07   2.58e-63
  4.9221e+07   6.71e-71
  5.1241e+07   4.05e-72
  5.3345e+07   3.44e-72
  5.5535e+07   2.95e-72
  5.7815e+07   2.56e-72
  6.0188e+07   2.19e-72
  6.2659e+07   1.90e-72
  6.5232e+07   1.66e-72
  6.7910e+07   1.44e-72
  7.0698e+07   1.27e-72
  7.3600e+07   1.13e-72
  7.6621e+07   9.96e-73
  7.9767e+07   8.98e-73
  8.3042e+07   8.08e-73
  8.6451e+07   7.24e-73
  9.0000e+07   6.63e-73
