#  E [MeV]   Flux [# cm^{-2} s^{-1}  MeV^{-1}]
  3.0000e+04   2.92e-25
  3.1141e+04   2.81e-25
  3.2326e+04   2.69e-25
  3.3556e+04   2.59e-25
  3.4832e+04   2.48e-25
  3.6157e+04   2.38e-25
  3.7533e+04   2.29e-25
  3.8961e+04   2.20e-25
  4.0443e+04   2.11e-25
  4.1982e+04   2.02e-25
  4.3579e+04   1.94e-25
  4.5237e+04   1.86e-25
  4.6958e+04   1.79e-25
  4.8744e+04   1.71e-25
  5.0598e+04   1.64e-25
  5.2523e+04   1.58e-25
  5.4521e+04   1.51e-25
  5.6596e+04   1.45e-25
  5.8749e+04   1.39e-25
  6.0984e+04   1.33e-25
  6.3304e+04   1.28e-25
  6.5712e+04   1.22e-25
  6.8212e+04   1.17e-25
  7.0807e+04   1.12e-25
  7.3500e+04   1.08e-25
  7.6297e+04   1.03e-25
  7.9199e+04   9.88e-26
  8.2212e+04   9.46e-26
  8.5340e+04   9.06e-26
  8.8586e+04   8.67e-26
  9.1956e+04   8.29e-26
  9.5455e+04   7.94e-26
  9.9086e+04   7.59e-26
  1.0286e+05   7.26e-26
  1.0677e+05   6.94e-26
  1.1083e+05   6.64e-26
  1.1505e+05   6.34e-26
  1.1942e+05   6.06e-26
  1.2397e+05   5.79e-26
  1.2868e+05   5.53e-26
  1.3358e+05   5.28e-26
  1.3866e+05   5.04e-26
  1.4394e+05   4.80e-26
  1.4941e+05   4.58e-26
  1.5509e+05   4.37e-26
  1.6100e+05   4.16e-26
  1.6712e+05   3.96e-26
  1.7348e+05   3.77e-26
  1.8008e+05   3.59e-26
  1.8693e+05   3.42e-26
  1.9404e+05   3.25e-26
  2.0142e+05   3.09e-26
  2.0908e+05   2.93e-26
  2.1704e+05   2.78e-26
  2.2529e+05   2.64e-26
  2.3387e+05   2.50e-26
  2.4276e+05   2.37e-26
  2.5200e+05   2.25e-26
  2.6158e+05   2.13e-26
  2.7154e+05   2.01e-26
  2.8187e+05   1.90e-26
  2.9259e+05   1.80e-26
  3.0372e+05   1.70e-26
  3.1527e+05   1.60e-26
  3.2727e+05   1.51e-26
  3.3972e+05   1.42e-26
  3.5264e+05   1.34e-26
  3.6606e+05   1.26e-26
  3.7998e+05   1.18e-26
  3.9444e+05   1.11e-26
  4.0945e+05   1.04e-26
  4.2502e+05   9.74e-27
  4.4119e+05   9.12e-27
  4.5798e+05   8.53e-27
  4.7540e+05   7.98e-27
  4.9348e+05   7.46e-27
  5.1226e+05   6.96e-27
  5.3175e+05   6.49e-27
  5.5198e+05   6.05e-27
  5.7297e+05   5.64e-27
  5.9477e+05   5.25e-27
  6.1740e+05   4.88e-27
  6.4089e+05   4.54e-27
  6.6527e+05   4.21e-27
  6.9058e+05   3.91e-27
  7.1685e+05   3.63e-27
  7.4412e+05   3.37e-27
  7.7243e+05   3.12e-27
  8.0181e+05   2.89e-27
  8.3232e+05   2.68e-27
  8.6398e+05   2.48e-27
  8.9685e+05   2.30e-27
  9.3097e+05   2.13e-27
  9.6638e+05   1.97e-27
  1.0031e+06   1.82e-27
  1.0413e+06   1.68e-27
  1.0809e+06   1.56e-27
  1.1220e+06   1.44e-27
  1.1647e+06   1.33e-27
  1.2090e+06   1.23e-27
  1.2550e+06   1.13e-27
  1.3028e+06   1.05e-27
  1.3523e+06   9.67e-28
  1.4038e+06   8.93e-28
  1.4572e+06   8.25e-28
  1.5126e+06   7.61e-28
  1.5702e+06   7.02e-28
  1.6299e+06   6.48e-28
  1.6919e+06   5.97e-28
  1.7563e+06   5.51e-28
  1.8231e+06   5.08e-28
  1.8925e+06   4.68e-28
  1.9645e+06   4.31e-28
  2.0392e+06   3.97e-28
  2.1168e+06   3.65e-28
  2.1973e+06   3.36e-28
  2.2809e+06   3.09e-28
  2.3677e+06   2.84e-28
  2.4577e+06   2.61e-28
  2.5512e+06   2.39e-28
  2.6483e+06   2.19e-28
  2.7490e+06   2.01e-28
  2.8536e+06   1.84e-28
  2.9622e+06   1.68e-28
  3.0749e+06   1.53e-28
  3.1918e+06   1.40e-28
  3.3133e+06   1.28e-28
  3.4393e+06   1.16e-28
  3.5702e+06   1.06e-28
  3.7060e+06   9.59e-29
  3.8470e+06   8.68e-29
  3.9933e+06   7.87e-29
  4.1452e+06   7.11e-29
  4.3029e+06   6.41e-29
  4.4666e+06   5.78e-29
  4.6366e+06   5.20e-29
  4.8129e+06   4.66e-29
  4.9960e+06   4.17e-29
  5.1861e+06   3.73e-29
  5.3834e+06   3.31e-29
  5.5882e+06   2.95e-29
  5.8008e+06   2.61e-29
  6.0215e+06   2.30e-29
  6.2506e+06   2.04e-29
  6.4883e+06   1.79e-29
  6.7352e+06   1.56e-29
  6.9914e+06   1.36e-29
  7.2574e+06   1.19e-29
  7.5335e+06   1.02e-29
  7.8201e+06   8.84e-30
  8.1176e+06   7.59e-30
  8.4264e+06   6.46e-30
  8.7470e+06   5.49e-30
  9.0797e+06   4.64e-30
  9.4251e+06   3.88e-30
  9.7837e+06   3.24e-30
  1.0156e+07   2.68e-30
  1.0542e+07   2.19e-30
  1.0943e+07   1.78e-30
  1.1360e+07   1.44e-30
  1.1792e+07   1.14e-30
  1.2240e+07   8.99e-31
  1.2706e+07   7.02e-31
  1.3189e+07   5.38e-31
  1.3691e+07   4.06e-31
  1.4212e+07   3.04e-31
  1.4753e+07   2.22e-31
  1.5314e+07   1.58e-31
  1.5897e+07   1.12e-31
  1.6501e+07   7.60e-32
  1.7129e+07   5.02e-32
  1.7781e+07   3.26e-32
  1.8457e+07   2.02e-32
  1.9159e+07   1.19e-32
  1.9888e+07   6.85e-33
  2.0645e+07   3.69e-33
  2.1430e+07   1.85e-33
  2.2245e+07   8.85e-34
  2.3092e+07   3.86e-34
  2.3970e+07   1.51e-34
  2.4882e+07   5.47e-35
  2.5829e+07   1.72e-35
  2.6811e+07   4.58e-36
  2.7831e+07   1.05e-36
  2.8890e+07   1.94e-37
  2.9989e+07   2.73e-38
  3.1130e+07   2.90e-39
  3.2314e+07   2.14e-40
  3.3544e+07   9.91e-42
  3.4820e+07   2.71e-43
  3.6144e+07   3.79e-45
  3.7519e+07   2.26e-47
  3.8947e+07   4.87e-50
  4.0428e+07   2.87e-53
  4.1966e+07   3.19e-57
  4.3563e+07   4.33e-62
  4.5220e+07   3.92e-68
  4.6941e+07   1.89e-72
  4.8726e+07   1.42e-72
  5.0580e+07   1.06e-72
