#  E [GeV]   # per interaction  [GeV^{-1}]
  3.0000e+01   7.21e-01
  3.1232e+01   6.89e-01
  3.2514e+01   6.59e-01
  3.3849e+01   6.30e-01
  3.5238e+01   6.02e-01
  3.6685e+01   5.75e-01
  3.8191e+01   5.50e-01
  3.9759e+01   5.25e-01
  4.1391e+01   5.02e-01
  4.3090e+01   4.80e-01
  4.4859e+01   4.58e-01
  4.6701e+01   4.38e-01
  4.8618e+01   4.18e-01
  5.0614e+01   3.99e-01
  5.2692e+01   3.81e-01
  5.4855e+01   3.64e-01
  5.7107e+01   3.48e-01
  5.9451e+01   3.32e-01
  6.1892e+01   3.17e-01
  6.4433e+01   3.02e-01
  6.7078e+01   2.89e-01
  6.9832e+01   2.75e-01
  7.2699e+01   2.63e-01
  7.5683e+01   2.51e-01
  7.8790e+01   2.39e-01
  8.2025e+01   2.28e-01
  8.5392e+01   2.18e-01
  8.8898e+01   2.08e-01
  9.2547e+01   1.98e-01
  9.6347e+01   1.89e-01
  1.0030e+02   1.80e-01
  1.0442e+02   1.72e-01
  1.0871e+02   1.64e-01
  1.1317e+02   1.56e-01
  1.1782e+02   1.49e-01
  1.2265e+02   1.42e-01
  1.2769e+02   1.35e-01
  1.3293e+02   1.29e-01
  1.3839e+02   1.22e-01
  1.4407e+02   1.17e-01
  1.4998e+02   1.11e-01
  1.5614e+02   1.06e-01
  1.6255e+02   1.01e-01
  1.6922e+02   9.57e-02
  1.7617e+02   9.11e-02
  1.8340e+02   8.66e-02
  1.9093e+02   8.23e-02
  1.9877e+02   7.83e-02
  2.0693e+02   7.44e-02
  2.1543e+02   7.07e-02
  2.2427e+02   6.72e-02
  2.3348e+02   6.38e-02
  2.4306e+02   6.06e-02
  2.5304e+02   5.76e-02
  2.6343e+02   5.47e-02
  2.7424e+02   5.19e-02
  2.8550e+02   4.92e-02
  2.9722e+02   4.67e-02
  3.0942e+02   4.42e-02
  3.2213e+02   4.19e-02
  3.3535e+02   3.97e-02
  3.4912e+02   3.76e-02
  3.6345e+02   3.56e-02
  3.7837e+02   3.37e-02
  3.9390e+02   3.18e-02
  4.1008e+02   3.01e-02
  4.2691e+02   2.85e-02
  4.4444e+02   2.69e-02
  4.6268e+02   2.54e-02
  4.8168e+02   2.40e-02
  5.0145e+02   2.26e-02
  5.2204e+02   2.14e-02
  5.4347e+02   2.01e-02
  5.6578e+02   1.90e-02
  5.8901e+02   1.79e-02
  6.1319e+02   1.68e-02
  6.3836e+02   1.58e-02
  6.6457e+02   1.49e-02
  6.9185e+02   1.40e-02
  7.2025e+02   1.32e-02
  7.4982e+02   1.24e-02
  7.8061e+02   1.16e-02
  8.1265e+02   1.09e-02
  8.4601e+02   1.02e-02
  8.8075e+02   9.58e-03
  9.1690e+02   8.98e-03
  9.5455e+02   8.41e-03
  9.9373e+02   7.88e-03
  1.0345e+03   7.38e-03
  1.0770e+03   6.90e-03
  1.1212e+03   6.45e-03
  1.1672e+03   6.03e-03
  1.2152e+03   5.64e-03
  1.2650e+03   5.26e-03
  1.3170e+03   4.91e-03
  1.3711e+03   4.58e-03
  1.4273e+03   4.28e-03
  1.4859e+03   3.99e-03
  1.5469e+03   3.72e-03
  1.6104e+03   3.46e-03
  1.6766e+03   3.22e-03
  1.7454e+03   3.00e-03
  1.8170e+03   2.79e-03
  1.8916e+03   2.59e-03
  1.9693e+03   2.41e-03
  2.0501e+03   2.24e-03
  2.1343e+03   2.08e-03
  2.2219e+03   1.93e-03
  2.3131e+03   1.79e-03
  2.4081e+03   1.66e-03
  2.5070e+03   1.53e-03
  2.6099e+03   1.42e-03
  2.7170e+03   1.31e-03
  2.8286e+03   1.21e-03
  2.9447e+03   1.12e-03
  3.0656e+03   1.03e-03
  3.1914e+03   9.52e-04
  3.3225e+03   8.78e-04
  3.4589e+03   8.08e-04
  3.6008e+03   7.44e-04
  3.7487e+03   6.84e-04
  3.9026e+03   6.28e-04
  4.0628e+03   5.77e-04
  4.2296e+03   5.30e-04
  4.4032e+03   4.85e-04
  4.5840e+03   4.45e-04
  4.7722e+03   4.07e-04
  4.9681e+03   3.71e-04
  5.1720e+03   3.40e-04
  5.3844e+03   3.10e-04
  5.6054e+03   2.82e-04
  5.8355e+03   2.57e-04
  6.0751e+03   2.34e-04
  6.3245e+03   2.12e-04
  6.5841e+03   1.93e-04
  6.8544e+03   1.75e-04
  7.1358e+03   1.58e-04
  7.4288e+03   1.44e-04
  7.7338e+03   1.30e-04
  8.0513e+03   1.17e-04
  8.3818e+03   1.06e-04
  8.7259e+03   9.51e-05
  9.0841e+03   8.55e-05
  9.4571e+03   7.68e-05
  9.8453e+03   6.87e-05
  1.0249e+04   6.16e-05
  1.0670e+04   5.51e-05
  1.1108e+04   4.90e-05
  1.1564e+04   4.37e-05
  1.2039e+04   3.89e-05
  1.2533e+04   3.44e-05
  1.3048e+04   3.06e-05
  1.3584e+04   2.70e-05
  1.4141e+04   2.37e-05
  1.4722e+04   2.09e-05
  1.5326e+04   1.83e-05
  1.5955e+04   1.60e-05
  1.6610e+04   1.40e-05
  1.7292e+04   1.21e-05
  1.8002e+04   1.05e-05
  1.8741e+04   9.02e-06
  1.9511e+04   7.71e-06
  2.0312e+04   6.57e-06
  2.1145e+04   5.57e-06
  2.2013e+04   4.66e-06
  2.2917e+04   3.89e-06
  2.3858e+04   3.21e-06
  2.4837e+04   2.61e-06
  2.5857e+04   2.10e-06
  2.6919e+04   1.66e-06
  2.8024e+04   1.28e-06
  2.9174e+04   9.75e-07
  3.0372e+04   7.17e-07
  3.1619e+04   5.06e-07
  3.2917e+04   3.45e-07
  3.4268e+04   2.21e-07
  3.5675e+04   1.32e-07
  3.7140e+04   7.32e-08
  3.8664e+04   3.61e-08
  4.0252e+04   1.55e-08
  4.1904e+04   5.57e-09
  4.3624e+04   1.58e-09
  4.5415e+04   3.30e-10
  4.7280e+04   4.63e-11
  4.9221e+04   3.77e-12
  5.1241e+04   1.50e-13
  5.3345e+04   2.23e-15
  5.5535e+04   8.55e-18
  5.7815e+04   5.13e-21
  6.0188e+04   2.21e-25
  6.2659e+04   2.22e-31
  6.5232e+04   1.02e-39
  6.7910e+04   1.59e-46
  7.0698e+04   1.65e-46
  7.3600e+04   1.87e-46
  7.6621e+04   2.07e-46
  7.9767e+04   2.41e-46
  8.3042e+04   3.36e-46
  8.6451e+04   4.23e-46
  9.0000e+04   5.48e-46
