#  E [GeV]   # per interaction  [GeV^{-1}]
  3.0000e+01   2.92e-02
  3.1232e+01   2.81e-02
  3.2514e+01   2.70e-02
  3.3849e+01   2.59e-02
  3.5238e+01   2.49e-02
  3.6685e+01   2.39e-02
  3.8191e+01   2.30e-02
  3.9759e+01   2.21e-02
  4.1391e+01   2.12e-02
  4.3090e+01   2.03e-02
  4.4859e+01   1.95e-02
  4.6701e+01   1.87e-02
  4.8618e+01   1.79e-02
  5.0614e+01   1.72e-02
  5.2692e+01   1.64e-02
  5.4855e+01   1.58e-02
  5.7107e+01   1.51e-02
  5.9451e+01   1.44e-02
  6.1892e+01   1.38e-02
  6.4433e+01   1.32e-02
  6.7078e+01   1.27e-02
  6.9832e+01   1.21e-02
  7.2699e+01   1.16e-02
  7.5683e+01   1.11e-02
  7.8790e+01   1.06e-02
  8.2025e+01   1.01e-02
  8.5392e+01   9.64e-03
  8.8898e+01   9.20e-03
  9.2547e+01   8.78e-03
  9.6347e+01   8.38e-03
  1.0030e+02   7.99e-03
  1.0442e+02   7.61e-03
  1.0871e+02   7.25e-03
  1.1317e+02   6.91e-03
  1.1782e+02   6.58e-03
  1.2265e+02   6.26e-03
  1.2769e+02   5.96e-03
  1.3293e+02   5.66e-03
  1.3839e+02   5.38e-03
  1.4407e+02   5.11e-03
  1.4998e+02   4.85e-03
  1.5614e+02   4.60e-03
  1.6255e+02   4.36e-03
  1.6922e+02   4.13e-03
  1.7617e+02   3.92e-03
  1.8340e+02   3.71e-03
  1.9093e+02   3.50e-03
  1.9877e+02   3.31e-03
  2.0693e+02   3.13e-03
  2.1543e+02   2.95e-03
  2.2427e+02   2.78e-03
  2.3348e+02   2.62e-03
  2.4306e+02   2.47e-03
  2.5304e+02   2.32e-03
  2.6343e+02   2.18e-03
  2.7424e+02   2.05e-03
  2.8550e+02   1.92e-03
  2.9722e+02   1.80e-03
  3.0942e+02   1.69e-03
  3.2213e+02   1.58e-03
  3.3535e+02   1.47e-03
  3.4912e+02   1.37e-03
  3.6345e+02   1.28e-03
  3.7837e+02   1.19e-03
  3.9390e+02   1.11e-03
  4.1008e+02   1.03e-03
  4.2691e+02   9.56e-04
  4.4444e+02   8.86e-04
  4.6268e+02   8.21e-04
  4.8168e+02   7.59e-04
  5.0145e+02   7.02e-04
  5.2204e+02   6.48e-04
  5.4347e+02   5.98e-04
  5.6578e+02   5.51e-04
  5.8901e+02   5.07e-04
  6.1319e+02   4.67e-04
  6.3836e+02   4.29e-04
  6.6457e+02   3.94e-04
  6.9185e+02   3.62e-04
  7.2025e+02   3.33e-04
  7.4982e+02   3.05e-04
  7.8061e+02   2.80e-04
  8.1265e+02   2.57e-04
  8.4601e+02   2.36e-04
  8.8075e+02   2.17e-04
  9.1690e+02   1.99e-04
  9.5455e+02   1.82e-04
  9.9373e+02   1.67e-04
  1.0345e+03   1.54e-04
  1.0770e+03   1.41e-04
  1.1212e+03   1.30e-04
  1.1672e+03   1.19e-04
  1.2152e+03   1.09e-04
  1.2650e+03   1.01e-04
  1.3170e+03   9.26e-05
  1.3711e+03   8.53e-05
  1.4273e+03   7.86e-05
  1.4859e+03   7.25e-05
  1.5469e+03   6.69e-05
  1.6104e+03   6.17e-05
  1.6766e+03   5.70e-05
  1.7454e+03   5.27e-05
  1.8170e+03   4.87e-05
  1.8916e+03   4.50e-05
  1.9693e+03   4.17e-05
  2.0501e+03   3.85e-05
  2.1343e+03   3.57e-05
  2.2219e+03   3.30e-05
  2.3131e+03   3.06e-05
  2.4081e+03   2.83e-05
  2.5070e+03   2.62e-05
  2.6099e+03   2.42e-05
  2.7170e+03   2.24e-05
  2.8286e+03   2.08e-05
  2.9447e+03   1.92e-05
  3.0656e+03   1.78e-05
  3.1914e+03   1.65e-05
  3.3225e+03   1.52e-05
  3.4589e+03   1.40e-05
  3.6008e+03   1.30e-05
  3.7487e+03   1.19e-05
  3.9026e+03   1.10e-05
  4.0628e+03   1.01e-05
  4.2296e+03   9.28e-06
  4.4032e+03   8.52e-06
  4.5840e+03   7.79e-06
  4.7722e+03   7.13e-06
  4.9681e+03   6.50e-06
  5.1720e+03   5.92e-06
  5.3844e+03   5.38e-06
  5.6054e+03   4.87e-06
  5.8355e+03   4.40e-06
  6.0751e+03   3.96e-06
  6.3245e+03   3.55e-06
  6.5841e+03   3.18e-06
  6.8544e+03   2.83e-06
  7.1358e+03   2.50e-06
  7.4288e+03   2.20e-06
  7.7338e+03   1.93e-06
  8.0513e+03   1.68e-06
  8.3818e+03   1.46e-06
  8.7259e+03   1.25e-06
  9.0841e+03   1.06e-06
  9.4571e+03   8.97e-07
  9.8453e+03   7.49e-07
  1.0249e+04   6.18e-07
  1.0670e+04   5.03e-07
  1.1108e+04   4.04e-07
  1.1564e+04   3.19e-07
  1.2039e+04   2.47e-07
  1.2533e+04   1.88e-07
  1.3048e+04   1.40e-07
  1.3584e+04   1.01e-07
  1.4141e+04   7.12e-08
  1.4722e+04   4.85e-08
  1.5326e+04   3.19e-08
  1.5955e+04   2.01e-08
  1.6610e+04   1.21e-08
  1.7292e+04   6.88e-09
  1.8002e+04   3.69e-09
  1.8741e+04   1.84e-09
  1.9511e+04   8.47e-10
  2.0312e+04   3.55e-10
  2.1145e+04   1.33e-10
  2.2013e+04   4.40e-11
  2.2917e+04   1.25e-11
  2.3858e+04   3.00e-12
  2.4837e+04   5.86e-13
  2.5857e+04   8.98e-14
  2.6919e+04   1.03e-14
  2.8024e+04   8.44e-16
  2.9174e+04   4.57e-17
  3.0372e+04   1.51e-18
  3.1619e+04   2.73e-20
  3.2917e+04   2.37e-22
  3.4268e+04   8.36e-25
  3.5675e+04   9.71e-28
  3.7140e+04   2.83e-31
  3.8664e+04   1.47e-35
  4.0252e+04   8.60e-41
  4.1904e+04   1.57e-46
  4.3624e+04   1.48e-46
  4.5415e+04   1.40e-46
  4.7280e+04   1.32e-46
  4.9221e+04   1.25e-46
  5.1241e+04   1.18e-46
  5.3345e+04   1.11e-46
  5.5535e+04   1.05e-46
  5.7815e+04   9.92e-47
  6.0188e+04   9.35e-47
  6.2659e+04   8.81e-47
  6.5232e+04   8.29e-47
  6.7910e+04   7.80e-47
  7.0698e+04   7.34e-47
  7.3600e+04   6.89e-47
  7.6621e+04   6.46e-47
  7.9767e+04   6.05e-47
  8.3042e+04   5.66e-47
  8.6451e+04   5.33e-47
  9.0000e+04   5.01e-47
