#  E [MeV]   Flux [# cm^{-2} s^{-1}  MeV^{-1}]
  3.0000e+04   1.04e-25
  3.1232e+04   9.95e-26
  3.2514e+04   9.52e-26
  3.3849e+04   9.10e-26
  3.5238e+04   8.71e-26
  3.6685e+04   8.32e-26
  3.8191e+04   7.96e-26
  3.9759e+04   7.61e-26
  4.1391e+04   7.27e-26
  4.3090e+04   6.95e-26
  4.4859e+04   6.65e-26
  4.6701e+04   6.35e-26
  4.8618e+04   6.07e-26
  5.0614e+04   5.80e-26
  5.2692e+04   5.54e-26
  5.4855e+04   5.30e-26
  5.7107e+04   5.06e-26
  5.9451e+04   4.83e-26
  6.1892e+04   4.62e-26
  6.4433e+04   4.41e-26
  6.7078e+04   4.21e-26
  6.9832e+04   4.02e-26
  7.2699e+04   3.84e-26
  7.5683e+04   3.67e-26
  7.8790e+04   3.50e-26
  8.2025e+04   3.34e-26
  8.5392e+04   3.19e-26
  8.8898e+04   3.04e-26
  9.2547e+04   2.90e-26
  9.6347e+04   2.77e-26
  1.0030e+05   2.64e-26
  1.0442e+05   2.52e-26
  1.0871e+05   2.40e-26
  1.1317e+05   2.29e-26
  1.1782e+05   2.19e-26
  1.2265e+05   2.08e-26
  1.2769e+05   1.99e-26
  1.3293e+05   1.89e-26
  1.3839e+05   1.80e-26
  1.4407e+05   1.72e-26
  1.4998e+05   1.63e-26
  1.5614e+05   1.55e-26
  1.6255e+05   1.48e-26
  1.6922e+05   1.41e-26
  1.7617e+05   1.34e-26
  1.8340e+05   1.27e-26
  1.9093e+05   1.21e-26
  1.9877e+05   1.15e-26
  2.0693e+05   1.09e-26
  2.1543e+05   1.04e-26
  2.2427e+05   9.82e-27
  2.3348e+05   9.32e-27
  2.4306e+05   8.83e-27
  2.5304e+05   8.37e-27
  2.6343e+05   7.93e-27
  2.7424e+05   7.51e-27
  2.8550e+05   7.10e-27
  2.9722e+05   6.71e-27
  3.0942e+05   6.34e-27
  3.2213e+05   5.99e-27
  3.3535e+05   5.65e-27
  3.4912e+05   5.33e-27
  3.6345e+05   5.02e-27
  3.7837e+05   4.73e-27
  3.9390e+05   4.45e-27
  4.1008e+05   4.19e-27
  4.2691e+05   3.94e-27
  4.4444e+05   3.70e-27
  4.6268e+05   3.47e-27
  4.8168e+05   3.26e-27
  5.0145e+05   3.05e-27
  5.2204e+05   2.86e-27
  5.4347e+05   2.68e-27
  5.6578e+05   2.51e-27
  5.8901e+05   2.34e-27
  6.1319e+05   2.19e-27
  6.3836e+05   2.04e-27
  6.6457e+05   1.91e-27
  6.9185e+05   1.78e-27
  7.2025e+05   1.66e-27
  7.4982e+05   1.54e-27
  7.8061e+05   1.44e-27
  8.1265e+05   1.34e-27
  8.4601e+05   1.25e-27
  8.8075e+05   1.16e-27
  9.1690e+05   1.08e-27
  9.5455e+05   1.00e-27
  9.9373e+05   9.31e-28
  1.0345e+06   8.65e-28
  1.0770e+06   8.03e-28
  1.1212e+06   7.46e-28
  1.1672e+06   6.92e-28
  1.2152e+06   6.42e-28
  1.2650e+06   5.96e-28
  1.3170e+06   5.53e-28
  1.3711e+06   5.13e-28
  1.4273e+06   4.75e-28
  1.4859e+06   4.41e-28
  1.5469e+06   4.09e-28
  1.6104e+06   3.79e-28
  1.6766e+06   3.51e-28
  1.7454e+06   3.25e-28
  1.8170e+06   3.01e-28
  1.8916e+06   2.79e-28
  1.9693e+06   2.58e-28
  2.0501e+06   2.38e-28
  2.1343e+06   2.20e-28
  2.2219e+06   2.04e-28
  2.3131e+06   1.88e-28
  2.4081e+06   1.74e-28
  2.5070e+06   1.60e-28
  2.6099e+06   1.48e-28
  2.7170e+06   1.36e-28
  2.8286e+06   1.25e-28
  2.9447e+06   1.15e-28
  3.0656e+06   1.06e-28
  3.1914e+06   9.73e-29
  3.3225e+06   8.92e-29
  3.4589e+06   8.17e-29
  3.6008e+06   7.49e-29
  3.7487e+06   6.84e-29
  3.9026e+06   6.25e-29
  4.0628e+06   5.71e-29
  4.2296e+06   5.20e-29
  4.4032e+06   4.72e-29
  4.5840e+06   4.29e-29
  4.7722e+06   3.89e-29
  4.9681e+06   3.52e-29
  5.1720e+06   3.18e-29
  5.3844e+06   2.86e-29
  5.6054e+06   2.58e-29
  5.8355e+06   2.32e-29
  6.0751e+06   2.07e-29
  6.3245e+06   1.85e-29
  6.5841e+06   1.65e-29
  6.8544e+06   1.47e-29
  7.1358e+06   1.30e-29
  7.4288e+06   1.15e-29
  7.7338e+06   1.01e-29
  8.0513e+06   8.88e-30
  8.3818e+06   7.76e-30
  8.7259e+06   6.74e-30
  9.0841e+06   5.85e-30
  9.4571e+06   5.03e-30
  9.8453e+06   4.31e-30
  1.0249e+07   3.67e-30
  1.0670e+07   3.10e-30
  1.1108e+07   2.61e-30
  1.1564e+07   2.18e-30
  1.2039e+07   1.80e-30
  1.2533e+07   1.47e-30
  1.3048e+07   1.20e-30
  1.3584e+07   9.54e-31
  1.4141e+07   7.57e-31
  1.4722e+07   5.90e-31
  1.5326e+07   4.51e-31
  1.5955e+07   3.41e-31
  1.6610e+07   2.52e-31
  1.7292e+07   1.81e-31
  1.8002e+07   1.27e-31
  1.8741e+07   8.66e-32
  1.9511e+07   5.68e-32
  2.0312e+07   3.60e-32
  2.1145e+07   2.17e-32
  2.2013e+07   1.24e-32
  2.2917e+07   6.65e-33
  2.3858e+07   3.31e-33
  2.4837e+07   1.51e-33
  2.5857e+07   6.25e-34
  2.6919e+07   2.27e-34
  2.8024e+07   7.15e-35
  2.9174e+07   1.89e-35
  3.0372e+07   3.99e-36
  3.1619e+07   6.55e-37
  3.2917e+07   7.78e-38
  3.4268e+07   6.11e-39
  3.5675e+07   2.97e-40
  3.7140e+07   7.68e-42
  3.8664e+07   8.89e-44
  4.0252e+07   3.84e-46
  4.1904e+07   4.47e-49
  4.3624e+07   9.57e-53
  4.5415e+07   2.30e-57
  4.7280e+07   2.92e-63
  4.9221e+07   7.43e-71
  5.1241e+07   4.38e-72
  5.3345e+07   3.63e-72
  5.5535e+07   3.01e-72
  5.7815e+07   2.53e-72
  6.0188e+07   2.08e-72
  6.2659e+07   1.72e-72
  6.5232e+07   1.43e-72
  6.7910e+07   1.15e-72
  7.0698e+07   9.51e-73
  7.3600e+07   7.78e-73
  7.6621e+07   6.18e-73
  7.9767e+07   4.95e-73
  8.3042e+07   3.85e-73
  8.6451e+07   2.83e-73
  9.0000e+07   2.10e-73
