#  E [MeV]   Flux [# cm^{-2} s^{-1}  MeV^{-1}]
  3.0000e+04   4.24e-24
  3.0962e+04   4.07e-24
  3.1955e+04   3.90e-24
  3.2979e+04   3.75e-24
  3.4037e+04   3.60e-24
  3.5128e+04   3.45e-24
  3.6254e+04   3.31e-24
  3.7417e+04   3.18e-24
  3.8616e+04   3.05e-24
  3.9855e+04   2.92e-24
  4.1132e+04   2.81e-24
  4.2451e+04   2.69e-24
  4.3812e+04   2.58e-24
  4.5217e+04   2.47e-24
  4.6667e+04   2.37e-24
  4.8163e+04   2.27e-24
  4.9707e+04   2.18e-24
  5.1301e+04   2.09e-24
  5.2946e+04   2.00e-24
  5.4644e+04   1.92e-24
  5.6396e+04   1.84e-24
  5.8204e+04   1.76e-24
  6.0070e+04   1.69e-24
  6.1996e+04   1.61e-24
  6.3984e+04   1.55e-24
  6.6035e+04   1.48e-24
  6.8153e+04   1.42e-24
  7.0338e+04   1.36e-24
  7.2593e+04   1.30e-24
  7.4921e+04   1.24e-24
  7.7323e+04   1.19e-24
  7.9802e+04   1.14e-24
  8.2361e+04   1.09e-24
  8.5002e+04   1.04e-24
  8.7727e+04   9.96e-25
  9.0540e+04   9.52e-25
  9.3443e+04   9.10e-25
  9.6439e+04   8.70e-25
  9.9531e+04   8.31e-25
  1.0272e+05   7.94e-25
  1.0602e+05   7.58e-25
  1.0942e+05   7.24e-25
  1.1292e+05   6.91e-25
  1.1654e+05   6.60e-25
  1.2028e+05   6.29e-25
  1.2414e+05   6.00e-25
  1.2812e+05   5.72e-25
  1.3223e+05   5.45e-25
  1.3646e+05   5.19e-25
  1.4084e+05   4.95e-25
  1.4536e+05   4.71e-25
  1.5002e+05   4.48e-25
  1.5483e+05   4.26e-25
  1.5979e+05   4.05e-25
  1.6491e+05   3.85e-25
  1.7020e+05   3.66e-25
  1.7566e+05   3.47e-25
  1.8129e+05   3.29e-25
  1.8710e+05   3.12e-25
  1.9310e+05   2.95e-25
  1.9929e+05   2.80e-25
  2.0568e+05   2.64e-25
  2.1228e+05   2.50e-25
  2.1909e+05   2.36e-25
  2.2611e+05   2.23e-25
  2.3336e+05   2.10e-25
  2.4084e+05   1.98e-25
  2.4856e+05   1.87e-25
  2.5653e+05   1.76e-25
  2.6476e+05   1.66e-25
  2.7325e+05   1.57e-25
  2.8201e+05   1.47e-25
  2.9105e+05   1.39e-25
  3.0038e+05   1.30e-25
  3.1002e+05   1.22e-25
  3.1996e+05   1.15e-25
  3.3021e+05   1.08e-25
  3.4080e+05   1.01e-25
  3.5173e+05   9.48e-26
  3.6301e+05   8.87e-26
  3.7465e+05   8.30e-26
  3.8666e+05   7.76e-26
  3.9905e+05   7.24e-26
  4.1185e+05   6.75e-26
  4.2506e+05   6.29e-26
  4.3868e+05   5.86e-26
  4.5275e+05   5.45e-26
  4.6727e+05   5.07e-26
  4.8225e+05   4.71e-26
  4.9771e+05   4.37e-26
  5.1367e+05   4.05e-26
  5.3014e+05   3.75e-26
  5.4714e+05   3.47e-26
  5.6468e+05   3.21e-26
  5.8278e+05   2.97e-26
  6.0147e+05   2.74e-26
  6.2075e+05   2.53e-26
  6.4066e+05   2.33e-26
  6.6120e+05   2.15e-26
  6.8240e+05   1.98e-26
  7.0428e+05   1.82e-26
  7.2686e+05   1.67e-26
  7.5017e+05   1.53e-26
  7.7422e+05   1.41e-26
  7.9904e+05   1.29e-26
  8.2466e+05   1.18e-26
  8.5110e+05   1.08e-26
  8.7839e+05   9.89e-27
  9.0656e+05   9.04e-27
  9.3562e+05   8.25e-27
  9.6562e+05   7.53e-27
  9.9658e+05   6.88e-27
  1.0285e+06   6.27e-27
  1.0615e+06   5.70e-27
  1.0956e+06   5.20e-27
  1.1307e+06   4.73e-27
  1.1669e+06   4.30e-27
  1.2043e+06   3.90e-27
  1.2430e+06   3.55e-27
  1.2828e+06   3.22e-27
  1.3239e+06   2.92e-27
  1.3664e+06   2.65e-27
  1.4102e+06   2.40e-27
  1.4554e+06   2.17e-27
  1.5021e+06   1.96e-27
  1.5502e+06   1.77e-27
  1.6000e+06   1.60e-27
  1.6513e+06   1.44e-27
  1.7042e+06   1.29e-27
  1.7588e+06   1.17e-27
  1.8152e+06   1.05e-27
  1.8734e+06   9.38e-28
  1.9335e+06   8.43e-28
  1.9955e+06   7.58e-28
  2.0595e+06   6.77e-28
  2.1255e+06   6.03e-28
  2.1937e+06   5.41e-28
  2.2640e+06   4.83e-28
  2.3366e+06   4.29e-28
  2.4115e+06   3.82e-28
  2.4888e+06   3.41e-28
  2.5686e+06   3.02e-28
  2.6510e+06   2.66e-28
  2.7360e+06   2.37e-28
  2.8237e+06   2.10e-28
  2.9142e+06   1.85e-28
  3.0077e+06   1.62e-28
  3.1041e+06   1.44e-28
  3.2036e+06   1.26e-28
  3.3064e+06   1.10e-28
  3.4124e+06   9.61e-29
  3.5218e+06   8.44e-29
  3.6347e+06   7.36e-29
  3.7512e+06   6.34e-29
  3.8715e+06   5.55e-29
  3.9957e+06   4.83e-29
  4.1238e+06   4.16e-29
  4.2560e+06   3.57e-29
  4.3924e+06   3.11e-29
  4.5333e+06   2.68e-29
  4.6786e+06   2.28e-29
  4.8286e+06   1.96e-29
  4.9835e+06   1.69e-29
  5.1433e+06   1.44e-29
  5.3082e+06   1.21e-29
  5.4784e+06   1.04e-29
  5.6540e+06   8.85e-30
  5.8353e+06   7.45e-30
  6.0224e+06   6.25e-30
  6.2155e+06   5.33e-30
  6.4148e+06   4.50e-30
  6.6205e+06   3.74e-30
  6.8327e+06   3.15e-30
  7.0518e+06   2.67e-30
  7.2779e+06   2.23e-30
  7.5113e+06   1.84e-30
  7.7521e+06   1.56e-30
  8.0007e+06   1.31e-30
  8.2572e+06   1.09e-30
  8.5219e+06   9.00e-31
  8.7952e+06   7.57e-31
  9.0772e+06   6.29e-31
  9.3682e+06   5.17e-31
  9.6686e+06   4.30e-31
  9.9786e+06   3.59e-31
  1.0299e+07   2.97e-31
  1.0629e+07   2.42e-31
  1.0970e+07   2.01e-31
  1.1321e+07   1.65e-31
  1.1684e+07   1.34e-31
  1.2059e+07   1.08e-31
  1.2446e+07   8.61e-32
  1.2845e+07   6.80e-32
  1.3256e+07   5.28e-32
  1.3681e+07   4.05e-32
  1.4120e+07   3.06e-32
  1.4573e+07   2.26e-32
  1.5040e+07   1.64e-32
  1.5522e+07   1.19e-32
  1.6020e+07   8.42e-33
