#  E [GeV]   # per interaction  [GeV^{-1}]
  3.0000e+01   1.74e-01
  3.0589e+01   1.69e-01
  3.1190e+01   1.63e-01
  3.1803e+01   1.58e-01
  3.2428e+01   1.53e-01
  3.3065e+01   1.49e-01
  3.3714e+01   1.44e-01
  3.4376e+01   1.39e-01
  3.5052e+01   1.35e-01
  3.5740e+01   1.31e-01
  3.6442e+01   1.26e-01
  3.7158e+01   1.22e-01
  3.7888e+01   1.18e-01
  3.8632e+01   1.15e-01
  3.9391e+01   1.11e-01
  4.0165e+01   1.07e-01
  4.0954e+01   1.04e-01
  4.1758e+01   1.00e-01
  4.2579e+01   9.69e-02
  4.3415e+01   9.36e-02
  4.4268e+01   9.05e-02
  4.5138e+01   8.74e-02
  4.6024e+01   8.44e-02
  4.6928e+01   8.16e-02
  4.7850e+01   7.88e-02
  4.8790e+01   7.61e-02
  4.9749e+01   7.35e-02
  5.0726e+01   7.09e-02
  5.1722e+01   6.85e-02
  5.2738e+01   6.61e-02
  5.3774e+01   6.38e-02
  5.4831e+01   6.15e-02
  5.5908e+01   5.93e-02
  5.7006e+01   5.72e-02
  5.8126e+01   5.52e-02
  5.9268e+01   5.32e-02
  6.0432e+01   5.13e-02
  6.1619e+01   4.94e-02
  6.2829e+01   4.76e-02
  6.4064e+01   4.59e-02
  6.5322e+01   4.42e-02
  6.6605e+01   4.26e-02
  6.7913e+01   4.10e-02
  6.9248e+01   3.95e-02
  7.0608e+01   3.80e-02
  7.1995e+01   3.66e-02
  7.3409e+01   3.52e-02
  7.4851e+01   3.39e-02
  7.6321e+01   3.26e-02
  7.7821e+01   3.14e-02
  7.9349e+01   3.02e-02
  8.0908e+01   2.90e-02
  8.2497e+01   2.79e-02
  8.4118e+01   2.68e-02
  8.5770e+01   2.58e-02
  8.7455e+01   2.47e-02
  8.9173e+01   2.38e-02
  9.0925e+01   2.28e-02
  9.2711e+01   2.19e-02
  9.4532e+01   2.11e-02
  9.6389e+01   2.02e-02
  9.8283e+01   1.94e-02
  1.0021e+02   1.86e-02
  1.0218e+02   1.78e-02
  1.0419e+02   1.71e-02
  1.0624e+02   1.64e-02
  1.0832e+02   1.57e-02
  1.1045e+02   1.51e-02
  1.1262e+02   1.45e-02
  1.1483e+02   1.39e-02
  1.1709e+02   1.33e-02
  1.1939e+02   1.27e-02
  1.2173e+02   1.22e-02
  1.2412e+02   1.17e-02
  1.2656e+02   1.11e-02
  1.2905e+02   1.07e-02
  1.3158e+02   1.02e-02
  1.3417e+02   9.77e-03
  1.3680e+02   9.34e-03
  1.3949e+02   8.92e-03
  1.4223e+02   8.52e-03
  1.4503e+02   8.15e-03
  1.4787e+02   7.79e-03
  1.5078e+02   7.43e-03
  1.5374e+02   7.09e-03
  1.5676e+02   6.76e-03
  1.5984e+02   6.45e-03
  1.6298e+02   6.16e-03
  1.6618e+02   5.87e-03
  1.6945e+02   5.60e-03
  1.7278e+02   5.33e-03
  1.7617e+02   5.08e-03
  1.7963e+02   4.83e-03
  1.8316e+02   4.61e-03
  1.8676e+02   4.39e-03
  1.9042e+02   4.18e-03
  1.9417e+02   3.97e-03
  1.9798e+02   3.77e-03
  2.0187e+02   3.59e-03
  2.0583e+02   3.41e-03
  2.0988e+02   3.25e-03
  2.1400e+02   3.09e-03
  2.1820e+02   2.93e-03
  2.2249e+02   2.78e-03
  2.2686e+02   2.63e-03
  2.3132e+02   2.50e-03
  2.3586e+02   2.38e-03
  2.4049e+02   2.25e-03
  2.4522e+02   2.14e-03
  2.5004e+02   2.02e-03
  2.5495e+02   1.91e-03
  2.5996e+02   1.82e-03
  2.6506e+02   1.72e-03
  2.7027e+02   1.63e-03
  2.7558e+02   1.54e-03
  2.8099e+02   1.45e-03
  2.8651e+02   1.37e-03
  2.9214e+02   1.30e-03
  2.9788e+02   1.23e-03
  3.0373e+02   1.16e-03
  3.0970e+02   1.09e-03
  3.1578e+02   1.03e-03
  3.2198e+02   9.72e-04
  3.2831e+02   9.18e-04
  3.3476e+02   8.67e-04
  3.4133e+02   8.16e-04
  3.4804e+02   7.68e-04
  3.5487e+02   7.21e-04
  3.6185e+02   6.79e-04
  3.6895e+02   6.41e-04
  3.7620e+02   6.04e-04
  3.8359e+02   5.68e-04
  3.9113e+02   5.33e-04
  3.9881e+02   4.99e-04
  4.0664e+02   4.70e-04
  4.1463e+02   4.43e-04
  4.2278e+02   4.17e-04
  4.3108e+02   3.91e-04
  4.3955e+02   3.67e-04
  4.4818e+02   3.43e-04
  4.5699e+02   3.23e-04
  4.6596e+02   3.04e-04
  4.7512e+02   2.86e-04
  4.8445e+02   2.68e-04
  4.9397e+02   2.51e-04
  5.0367e+02   2.34e-04
  5.1356e+02   2.21e-04
  5.2365e+02   2.08e-04
  5.3394e+02   1.95e-04
  5.4443e+02   1.83e-04
  5.5512e+02   1.71e-04
  5.6603e+02   1.60e-04
  5.7715e+02   1.51e-04
  5.8848e+02   1.42e-04
  6.0004e+02   1.34e-04
  6.1183e+02   1.26e-04
  6.2385e+02   1.18e-04
  6.3610e+02   1.11e-04
  6.4860e+02   1.05e-04
  6.6134e+02   9.93e-05
  6.7433e+02   9.39e-05
  6.8758e+02   8.86e-05
  7.0108e+02   8.36e-05
  7.1486e+02   7.89e-05
  7.2890e+02   7.53e-05
  7.4322e+02   7.18e-05
  7.5782e+02   6.83e-05
  7.7270e+02   6.50e-05
  7.8788e+02   6.18e-05
  8.0336e+02   5.90e-05
  8.1914e+02   5.67e-05
  8.3523e+02   5.45e-05
  8.5164e+02   5.24e-05
  8.6837e+02   5.03e-05
  8.8542e+02   4.83e-05
  9.0282e+02   4.67e-05
  9.2055e+02   4.56e-05
  9.3863e+02   4.46e-05
  9.5707e+02   4.35e-05
  9.7587e+02   4.25e-05
  9.9504e+02   4.15e-05
  1.0146e+03   4.09e-05
  1.0345e+03   4.06e-05
  1.0548e+03   4.04e-05
  1.0756e+03   4.01e-05
  1.0967e+03   3.99e-05
  1.1182e+03   3.96e-05
  1.1402e+03   3.99e-05
  1.1626e+03   4.06e-05
  1.1854e+03   4.13e-05
  1.2087e+03   4.20e-05
  1.2325e+03   4.25e-05
  1.2567e+03   4.31e-05
  1.2814e+03   4.20e-05
  1.3065e+03   4.00e-05
  1.3322e+03   3.80e-05
  1.3584e+03   3.61e-05
  1.3851e+03   3.43e-05
  1.4123e+03   3.26e-05
  1.4400e+03   2.78e-05
