#  E [MeV]   Flux [# cm^{-2} s^{-1}  MeV^{-1}]
  3.0000e+04   2.86e-25
  3.0782e+04   2.76e-25
  3.1585e+04   2.66e-25
  3.2409e+04   2.57e-25
  3.3255e+04   2.48e-25
  3.4122e+04   2.40e-25
  3.5012e+04   2.31e-25
  3.5925e+04   2.23e-25
  3.6862e+04   2.15e-25
  3.7824e+04   2.07e-25
  3.8810e+04   2.00e-25
  3.9822e+04   1.93e-25
  4.0861e+04   1.86e-25
  4.1927e+04   1.79e-25
  4.3021e+04   1.73e-25
  4.4143e+04   1.67e-25
  4.5294e+04   1.61e-25
  4.6475e+04   1.55e-25
  4.7688e+04   1.49e-25
  4.8931e+04   1.44e-25
  5.0208e+04   1.39e-25
  5.1517e+04   1.34e-25
  5.2861e+04   1.29e-25
  5.4240e+04   1.24e-25
  5.5654e+04   1.19e-25
  5.7106e+04   1.15e-25
  5.8596e+04   1.11e-25
  6.0124e+04   1.07e-25
  6.1692e+04   1.03e-25
  6.3301e+04   9.90e-26
  6.4952e+04   9.53e-26
  6.6647e+04   9.17e-26
  6.8385e+04   8.83e-26
  7.0169e+04   8.50e-26
  7.1999e+04   8.18e-26
  7.3877e+04   7.87e-26
  7.5804e+04   7.58e-26
  7.7781e+04   7.29e-26
  7.9810e+04   7.02e-26
  8.1891e+04   6.75e-26
  8.4027e+04   6.50e-26
  8.6219e+04   6.25e-26
  8.8468e+04   6.02e-26
  9.0775e+04   5.79e-26
  9.3143e+04   5.57e-26
  9.5572e+04   5.36e-26
  9.8065e+04   5.15e-26
  1.0062e+05   4.96e-26
  1.0325e+05   4.77e-26
  1.0594e+05   4.59e-26
  1.0870e+05   4.41e-26
  1.1154e+05   4.25e-26
  1.1445e+05   4.08e-26
  1.1743e+05   3.93e-26
  1.2050e+05   3.78e-26
  1.2364e+05   3.63e-26
  1.2686e+05   3.50e-26
  1.3017e+05   3.36e-26
  1.3357e+05   3.23e-26
  1.3705e+05   3.11e-26
  1.4063e+05   2.99e-26
  1.4429e+05   2.87e-26
  1.4806e+05   2.76e-26
  1.5192e+05   2.66e-26
  1.5588e+05   2.56e-26
  1.5995e+05   2.46e-26
  1.6412e+05   2.36e-26
  1.6840e+05   2.27e-26
  1.7279e+05   2.18e-26
  1.7730e+05   2.10e-26
  1.8193e+05   2.02e-26
  1.8667e+05   1.94e-26
  1.9154e+05   1.86e-26
  1.9654e+05   1.79e-26
  2.0166e+05   1.72e-26
  2.0692e+05   1.65e-26
  2.1232e+05   1.59e-26
  2.1786e+05   1.53e-26
  2.2354e+05   1.47e-26
  2.2937e+05   1.41e-26
  2.3535e+05   1.36e-26
  2.4149e+05   1.30e-26
  2.4779e+05   1.25e-26
  2.5425e+05   1.20e-26
  2.6088e+05   1.15e-26
  2.6769e+05   1.11e-26
  2.7467e+05   1.07e-26
  2.8184e+05   1.02e-26
  2.8919e+05   9.82e-27
  2.9673e+05   9.43e-27
  3.0447e+05   9.05e-27
  3.1241e+05   8.69e-27
  3.2056e+05   8.34e-27
  3.2892e+05   8.00e-27
  3.3750e+05   7.67e-27
  3.4630e+05   7.36e-27
  3.5533e+05   7.06e-27
  3.6460e+05   6.77e-27
  3.7411e+05   6.49e-27
  3.8387e+05   6.22e-27
  3.9388e+05   5.96e-27
  4.0416e+05   5.72e-27
  4.1470e+05   5.48e-27
  4.2551e+05   5.25e-27
  4.3661e+05   5.03e-27
  4.4800e+05   4.82e-27
  4.5969e+05   4.61e-27
  4.7168e+05   4.42e-27
  4.8398e+05   4.23e-27
  4.9660e+05   4.05e-27
  5.0956e+05   3.88e-27
  5.2285e+05   3.71e-27
  5.3648e+05   3.55e-27
  5.5048e+05   3.40e-27
  5.6483e+05   3.25e-27
  5.7957e+05   3.11e-27
  5.9468e+05   2.97e-27
  6.1020e+05   2.84e-27
  6.2611e+05   2.72e-27
  6.4244e+05   2.60e-27
  6.5920e+05   2.49e-27
  6.7639e+05   2.38e-27
  6.9403e+05   2.27e-27
  7.1214e+05   2.17e-27
  7.3071e+05   2.08e-27
  7.4977e+05   1.99e-27
  7.6933e+05   1.90e-27
  7.8939e+05   1.82e-27
  8.0998e+05   1.74e-27
  8.3111e+05   1.66e-27
  8.5279e+05   1.59e-27
  8.7503e+05   1.52e-27
  8.9785e+05   1.45e-27
  9.2127e+05   1.39e-27
  9.4530e+05   1.33e-27
  9.6996e+05   1.27e-27
  9.9526e+05   1.22e-27
  1.0212e+06   1.17e-27
  1.0479e+06   1.12e-27
  1.0752e+06   1.07e-27
  1.1032e+06   1.02e-27
  1.1320e+06   9.79e-28
  1.1615e+06   9.38e-28
  1.1918e+06   8.98e-28
  1.2229e+06   8.60e-28
  1.2548e+06   8.24e-28
  1.2875e+06   7.89e-28
  1.3211e+06   7.56e-28
  1.3556e+06   7.25e-28
  1.3909e+06   6.94e-28
  1.4272e+06   6.66e-28
  1.4644e+06   6.38e-28
  1.5026e+06   6.11e-28
  1.5418e+06   5.86e-28
  1.5820e+06   5.62e-28
  1.6233e+06   5.39e-28
  1.6657e+06   5.16e-28
  1.7091e+06   4.95e-28
  1.7537e+06   4.75e-28
  1.7994e+06   4.55e-28
  1.8464e+06   4.37e-28
  1.8945e+06   4.19e-28
  1.9439e+06   4.02e-28
  1.9946e+06   3.85e-28
  2.0467e+06   3.69e-28
  2.1000e+06   3.54e-28
  2.1548e+06   3.39e-28
  2.2110e+06   3.25e-28
  2.2687e+06   3.12e-28
  2.3279e+06   2.99e-28
  2.3886e+06   2.86e-28
  2.4509e+06   2.74e-28
  2.5148e+06   2.62e-28
  2.5804e+06   2.51e-28
  2.6477e+06   2.41e-28
  2.7168e+06   2.30e-28
  2.7876e+06   2.20e-28
  2.8603e+06   2.11e-28
  2.9349e+06   2.01e-28
  3.0115e+06   1.92e-28
  3.0900e+06   1.84e-28
  3.1706e+06   1.76e-28
  3.2533e+06   1.68e-28
  3.3382e+06   1.60e-28
  3.4253e+06   1.53e-28
  3.5146e+06   1.46e-28
  3.6063e+06   1.39e-28
  3.7003e+06   1.32e-28
  3.7969e+06   1.26e-28
  3.8959e+06   1.20e-28
  3.9975e+06   1.14e-28
  4.1018e+06   1.08e-28
  4.2088e+06   1.03e-28
  4.3185e+06   9.73e-29
  4.4312e+06   9.22e-29
  4.5467e+06   8.73e-29
  4.6653e+06   8.26e-29
  4.7870e+06   7.83e-29
  4.9119e+06   7.44e-29
  5.0400e+06   7.06e-29
