#  E [MeV]   Flux [# cm^{-2} s^{-1}  MeV^{-1}]
  3.0000e+04   1.09e-21
  3.0943e+04   1.05e-21
  3.1916e+04   1.01e-21
  3.2920e+04   9.75e-22
  3.3955e+04   9.38e-22
  3.5023e+04   9.03e-22
  3.6124e+04   8.68e-22
  3.7260e+04   8.35e-22
  3.8432e+04   8.03e-22
  3.9640e+04   7.72e-22
  4.0887e+04   7.42e-22
  4.2172e+04   7.14e-22
  4.3499e+04   6.86e-22
  4.4866e+04   6.59e-22
  4.6277e+04   6.33e-22
  4.7732e+04   6.08e-22
  4.9233e+04   5.83e-22
  5.0781e+04   5.60e-22
  5.2378e+04   5.37e-22
  5.4025e+04   5.16e-22
  5.5724e+04   4.95e-22
  5.7476e+04   4.74e-22
  5.9284e+04   4.55e-22
  6.1148e+04   4.36e-22
  6.3071e+04   4.18e-22
  6.5054e+04   4.01e-22
  6.7100e+04   3.84e-22
  6.9210e+04   3.68e-22
  7.1386e+04   3.52e-22
  7.3631e+04   3.38e-22
  7.5946e+04   3.23e-22
  7.8334e+04   3.09e-22
  8.0797e+04   2.96e-22
  8.3338e+04   2.83e-22
  8.5959e+04   2.71e-22
  8.8662e+04   2.59e-22
  9.1450e+04   2.48e-22
  9.4325e+04   2.37e-22
  9.7291e+04   2.27e-22
  1.0035e+05   2.17e-22
  1.0351e+05   2.07e-22
  1.0676e+05   1.98e-22
  1.1012e+05   1.89e-22
  1.1358e+05   1.80e-22
  1.1715e+05   1.72e-22
  1.2084e+05   1.64e-22
  1.2464e+05   1.57e-22
  1.2856e+05   1.50e-22
  1.3260e+05   1.43e-22
  1.3677e+05   1.36e-22
  1.4107e+05   1.30e-22
  1.4550e+05   1.24e-22
  1.5008e+05   1.18e-22
  1.5480e+05   1.12e-22
  1.5967e+05   1.07e-22
  1.6469e+05   1.02e-22
  1.6987e+05   9.70e-23
  1.7521e+05   9.23e-23
  1.8072e+05   8.78e-23
  1.8640e+05   8.35e-23
  1.9226e+05   7.94e-23
  1.9831e+05   7.55e-23
  2.0454e+05   7.18e-23
  2.1097e+05   6.82e-23
  2.1761e+05   6.48e-23
  2.2445e+05   6.15e-23
  2.3151e+05   5.84e-23
  2.3879e+05   5.54e-23
  2.4630e+05   5.26e-23
  2.5404e+05   4.98e-23
  2.6203e+05   4.72e-23
  2.7027e+05   4.48e-23
  2.7877e+05   4.24e-23
  2.8753e+05   4.01e-23
  2.9657e+05   3.80e-23
  3.0590e+05   3.59e-23
  3.1552e+05   3.40e-23
  3.2544e+05   3.21e-23
  3.3567e+05   3.03e-23
  3.4623e+05   2.86e-23
  3.5712e+05   2.70e-23
  3.6835e+05   2.55e-23
  3.7993e+05   2.40e-23
  3.9188e+05   2.27e-23
  4.0420e+05   2.14e-23
  4.1691e+05   2.01e-23
  4.3002e+05   1.89e-23
  4.4354e+05   1.78e-23
  4.5749e+05   1.68e-23
  4.7187e+05   1.58e-23
  4.8671e+05   1.48e-23
  5.0202e+05   1.39e-23
  5.1780e+05   1.31e-23
  5.3409e+05   1.23e-23
  5.5088e+05   1.16e-23
  5.6820e+05   1.09e-23
  5.8607e+05   1.02e-23
  6.0450e+05   9.57e-24
  6.2351e+05   8.99e-24
  6.4311e+05   8.43e-24
  6.6334e+05   7.91e-24
  6.8419e+05   7.43e-24
  7.0571e+05   6.98e-24
  7.2790e+05   6.55e-24
  7.5079e+05   6.15e-24
  7.7440e+05   5.77e-24
  7.9875e+05   5.42e-24
  8.2387e+05   5.09e-24
  8.4977e+05   4.79e-24
  8.7649e+05   4.50e-24
  9.0405e+05   4.23e-24
  9.3248e+05   3.98e-24
  9.6180e+05   3.74e-24
  9.9205e+05   3.52e-24
  1.0232e+06   3.32e-24
  1.0554e+06   3.12e-24
  1.0886e+06   2.94e-24
  1.1228e+06   2.78e-24
  1.1581e+06   2.62e-24
  1.1946e+06   2.47e-24
  1.2321e+06   2.34e-24
  1.2709e+06   2.21e-24
  1.3108e+06   2.09e-24
  1.3521e+06   1.97e-24
  1.3946e+06   1.87e-24
  1.4384e+06   1.77e-24
  1.4837e+06   1.67e-24
  1.5303e+06   1.59e-24
  1.5784e+06   1.51e-24
  1.6281e+06   1.43e-24
  1.6793e+06   1.36e-24
  1.7321e+06   1.29e-24
  1.7865e+06   1.22e-24
  1.8427e+06   1.16e-24
  1.9006e+06   1.10e-24
  1.9604e+06   1.05e-24
  2.0221e+06   9.98e-25
  2.0856e+06   9.49e-25
  2.1512e+06   9.03e-25
  2.2189e+06   8.60e-25
  2.2886e+06   8.18e-25
  2.3606e+06   7.79e-25
  2.4348e+06   7.41e-25
  2.5114e+06   7.05e-25
  2.5904e+06   6.71e-25
  2.6718e+06   6.39e-25
  2.7558e+06   6.08e-25
  2.8425e+06   5.79e-25
  2.9319e+06   5.50e-25
  3.0241e+06   5.23e-25
  3.1192e+06   4.97e-25
  3.2173e+06   4.73e-25
  3.3184e+06   4.49e-25
  3.4228e+06   4.26e-25
  3.5304e+06   4.04e-25
  3.6414e+06   3.82e-25
  3.7559e+06   3.62e-25
  3.8740e+06   3.42e-25
  3.9958e+06   3.23e-25
  4.1215e+06   3.05e-25
  4.2511e+06   2.88e-25
  4.3848e+06   2.71e-25
  4.5227e+06   2.55e-25
  4.6649e+06   2.39e-25
  4.8116e+06   2.24e-25
  4.9629e+06   2.10e-25
  5.1189e+06   1.96e-25
  5.2799e+06   1.83e-25
  5.4459e+06   1.71e-25
  5.6171e+06   1.59e-25
  5.7938e+06   1.47e-25
  5.9760e+06   1.36e-25
  6.1639e+06   1.26e-25
  6.3577e+06   1.16e-25
  6.5576e+06   1.06e-25
  6.7638e+06   9.74e-26
  6.9765e+06   8.89e-26
  7.1959e+06   8.09e-26
  7.4222e+06   7.33e-26
  7.6556e+06   6.62e-26
  7.8963e+06   5.96e-26
  8.1446e+06   5.34e-26
  8.4007e+06   4.76e-26
  8.6649e+06   4.22e-26
  8.9373e+06   3.73e-26
  9.2184e+06   3.27e-26
  9.5082e+06   2.85e-26
  9.8072e+06   2.47e-26
  1.0116e+07   2.13e-26
  1.0434e+07   1.82e-26
  1.0762e+07   1.54e-26
  1.1100e+07   1.29e-26
  1.1449e+07   1.07e-26
  1.1809e+07   8.80e-27
  1.2181e+07   7.14e-27
  1.2564e+07   5.72e-27
  1.2959e+07   4.52e-27
  1.3366e+07   3.53e-27
  1.3786e+07   2.72e-27
  1.4220e+07   2.06e-27
