#  E [MeV]   Flux [# cm^{-2} s^{-1}  MeV^{-1}]
  3.0000e+04   1.62e-21
  3.0765e+04   1.57e-21
  3.1549e+04   1.51e-21
  3.2354e+04   1.46e-21
  3.3179e+04   1.41e-21
  3.4025e+04   1.36e-21
  3.4892e+04   1.31e-21
  3.5782e+04   1.27e-21
  3.6695e+04   1.22e-21
  3.7630e+04   1.18e-21
  3.8590e+04   1.14e-21
  3.9574e+04   1.10e-21
  4.0583e+04   1.06e-21
  4.1618e+04   1.02e-21
  4.2679e+04   9.87e-22
  4.3767e+04   9.52e-22
  4.4883e+04   9.18e-22
  4.6028e+04   8.85e-22
  4.7201e+04   8.53e-22
  4.8405e+04   8.23e-22
  4.9639e+04   7.93e-22
  5.0905e+04   7.64e-22
  5.2203e+04   7.37e-22
  5.3534e+04   7.10e-22
  5.4899e+04   6.84e-22
  5.6299e+04   6.59e-22
  5.7734e+04   6.35e-22
  5.9207e+04   6.12e-22
  6.0716e+04   5.90e-22
  6.2264e+04   5.68e-22
  6.3852e+04   5.47e-22
  6.5480e+04   5.27e-22
  6.7150e+04   5.08e-22
  6.8862e+04   4.89e-22
  7.0618e+04   4.71e-22
  7.2419e+04   4.54e-22
  7.4265e+04   4.37e-22
  7.6159e+04   4.21e-22
  7.8101e+04   4.05e-22
  8.0092e+04   3.90e-22
  8.2135e+04   3.76e-22
  8.4229e+04   3.62e-22
  8.6377e+04   3.48e-22
  8.8579e+04   3.36e-22
  9.0838e+04   3.23e-22
  9.3154e+04   3.11e-22
  9.5529e+04   2.99e-22
  9.7965e+04   2.88e-22
  1.0046e+05   2.77e-22
  1.0303e+05   2.67e-22
  1.0565e+05   2.57e-22
  1.0835e+05   2.47e-22
  1.1111e+05   2.38e-22
  1.1394e+05   2.29e-22
  1.1685e+05   2.21e-22
  1.1983e+05   2.12e-22
  1.2288e+05   2.04e-22
  1.2602e+05   1.97e-22
  1.2923e+05   1.89e-22
  1.3252e+05   1.82e-22
  1.3590e+05   1.75e-22
  1.3937e+05   1.68e-22
  1.4292e+05   1.62e-22
  1.4657e+05   1.56e-22
  1.5030e+05   1.50e-22
  1.5414e+05   1.44e-22
  1.5807e+05   1.38e-22
  1.6210e+05   1.33e-22
  1.6623e+05   1.28e-22
  1.7047e+05   1.23e-22
  1.7482e+05   1.18e-22
  1.7927e+05   1.14e-22
  1.8384e+05   1.09e-22
  1.8853e+05   1.05e-22
  1.9334e+05   1.01e-22
  1.9827e+05   9.71e-23
  2.0333e+05   9.33e-23
  2.0851e+05   8.97e-23
  2.1383e+05   8.62e-23
  2.1928e+05   8.28e-23
  2.2487e+05   7.95e-23
  2.3060e+05   7.63e-23
  2.3648e+05   7.33e-23
  2.4251e+05   7.04e-23
  2.4870e+05   6.76e-23
  2.5504e+05   6.49e-23
  2.6154e+05   6.22e-23
  2.6821e+05   5.97e-23
  2.7505e+05   5.72e-23
  2.8206e+05   5.49e-23
  2.8926e+05   5.26e-23
  2.9663e+05   5.04e-23
  3.0420e+05   4.83e-23
  3.1195e+05   4.62e-23
  3.1991e+05   4.42e-23
  3.2806e+05   4.23e-23
  3.3643e+05   4.05e-23
  3.4501e+05   3.87e-23
  3.5381e+05   3.70e-23
  3.6283e+05   3.54e-23
  3.7208e+05   3.38e-23
  3.8157e+05   3.23e-23
  3.9130e+05   3.09e-23
  4.0127e+05   2.95e-23
  4.1150e+05   2.81e-23
  4.2200e+05   2.69e-23
  4.3276e+05   2.56e-23
  4.4379e+05   2.45e-23
  4.5511e+05   2.33e-23
  4.6671e+05   2.22e-23
  4.7861e+05   2.12e-23
  4.9082e+05   2.02e-23
  5.0333e+05   1.93e-23
  5.1617e+05   1.83e-23
  5.2933e+05   1.75e-23
  5.4283e+05   1.66e-23
  5.5667e+05   1.58e-23
  5.7086e+05   1.50e-23
  5.8542e+05   1.43e-23
  6.0035e+05   1.36e-23
  6.1565e+05   1.29e-23
  6.3135e+05   1.23e-23
  6.4745e+05   1.17e-23
  6.6396e+05   1.11e-23
  6.8089e+05   1.06e-23
  6.9825e+05   1.00e-23
  7.1606e+05   9.55e-24
  7.3432e+05   9.07e-24
  7.5304e+05   8.63e-24
  7.7224e+05   8.20e-24
  7.9193e+05   7.80e-24
  8.1213e+05   7.41e-24
  8.3283e+05   7.04e-24
  8.5407e+05   6.69e-24
  8.7585e+05   6.36e-24
  8.9818e+05   6.05e-24
  9.2108e+05   5.75e-24
  9.4457e+05   5.46e-24
  9.6866e+05   5.19e-24
  9.9336e+05   4.94e-24
  1.0187e+06   4.70e-24
  1.0447e+06   4.47e-24
  1.0713e+06   4.25e-24
  1.0986e+06   4.05e-24
  1.1266e+06   3.85e-24
  1.1554e+06   3.67e-24
  1.1848e+06   3.49e-24
  1.2150e+06   3.33e-24
  1.2460e+06   3.17e-24
  1.2778e+06   3.02e-24
  1.3104e+06   2.88e-24
  1.3438e+06   2.74e-24
  1.3780e+06   2.62e-24
  1.4132e+06   2.49e-24
  1.4492e+06   2.38e-24
  1.4862e+06   2.27e-24
  1.5241e+06   2.17e-24
  1.5629e+06   2.07e-24
  1.6028e+06   1.98e-24
  1.6436e+06   1.89e-24
  1.6856e+06   1.80e-24
  1.7285e+06   1.72e-24
  1.7726e+06   1.65e-24
  1.8178e+06   1.57e-24
  1.8642e+06   1.50e-24
  1.9117e+06   1.44e-24
  1.9604e+06   1.37e-24
  2.0104e+06   1.31e-24
  2.0617e+06   1.25e-24
  2.1143e+06   1.20e-24
  2.1682e+06   1.14e-24
  2.2235e+06   1.09e-24
  2.2802e+06   1.04e-24
  2.3383e+06   9.93e-25
  2.3979e+06   9.48e-25
  2.4591e+06   9.05e-25
  2.5218e+06   8.63e-25
  2.5861e+06   8.23e-25
  2.6520e+06   7.85e-25
  2.7196e+06   7.48e-25
  2.7890e+06   7.13e-25
  2.8601e+06   6.79e-25
  2.9330e+06   6.47e-25
  3.0078e+06   6.16e-25
  3.0845e+06   5.86e-25
  3.1632e+06   5.58e-25
  3.2438e+06   5.30e-25
  3.3265e+06   5.04e-25
  3.4113e+06   4.78e-25
  3.4983e+06   4.54e-25
  3.5875e+06   4.30e-25
  3.6790e+06   4.07e-25
  3.7728e+06   3.85e-25
  3.8690e+06   3.64e-25
  3.9677e+06   3.44e-25
  4.0689e+06   3.24e-25
  4.1726e+06   3.06e-25
  4.2790e+06   2.90e-25
  4.3881e+06   2.74e-25
  4.5000e+06   2.59e-25
