#  E [MeV]   Flux [# cm^{-2} s^{-1}  MeV^{-1}]
  3.0000e+04   2.07e-18
  3.1123e+04   1.98e-18
  3.2288e+04   1.89e-18
  3.3497e+04   1.81e-18
  3.4751e+04   1.73e-18
  3.6051e+04   1.65e-18
  3.7401e+04   1.57e-18
  3.8801e+04   1.50e-18
  4.0253e+04   1.44e-18
  4.1760e+04   1.37e-18
  4.3324e+04   1.31e-18
  4.4945e+04   1.25e-18
  4.6628e+04   1.19e-18
  4.8373e+04   1.14e-18
  5.0184e+04   1.09e-18
  5.2063e+04   1.04e-18
  5.4011e+04   9.88e-19
  5.6033e+04   9.42e-19
  5.8131e+04   8.98e-19
  6.0307e+04   8.57e-19
  6.2564e+04   8.17e-19
  6.4906e+04   7.78e-19
  6.7336e+04   7.42e-19
  6.9857e+04   7.07e-19
  7.2472e+04   6.74e-19
  7.5184e+04   6.42e-19
  7.7999e+04   6.11e-19
  8.0919e+04   5.82e-19
  8.3948e+04   5.54e-19
  8.7090e+04   5.28e-19
  9.0350e+04   5.02e-19
  9.3732e+04   4.78e-19
  9.7241e+04   4.55e-19
  1.0088e+05   4.33e-19
  1.0466e+05   4.12e-19
  1.0858e+05   3.92e-19
  1.1264e+05   3.73e-19
  1.1686e+05   3.55e-19
  1.2123e+05   3.37e-19
  1.2577e+05   3.21e-19
  1.3048e+05   3.05e-19
  1.3536e+05   2.90e-19
  1.4043e+05   2.76e-19
  1.4568e+05   2.62e-19
  1.5114e+05   2.49e-19
  1.5680e+05   2.36e-19
  1.6266e+05   2.25e-19
  1.6875e+05   2.13e-19
  1.7507e+05   2.03e-19
  1.8162e+05   1.92e-19
  1.8842e+05   1.83e-19
  1.9548e+05   1.73e-19
  2.0279e+05   1.64e-19
  2.1039e+05   1.56e-19
  2.1826e+05   1.48e-19
  2.2643e+05   1.40e-19
  2.3491e+05   1.33e-19
  2.4370e+05   1.26e-19
  2.5282e+05   1.20e-19
  2.6229e+05   1.14e-19
  2.7211e+05   1.08e-19
  2.8229e+05   1.02e-19
  2.9286e+05   9.65e-20
  3.0382e+05   9.14e-20
  3.1519e+05   8.65e-20
  3.2699e+05   8.18e-20
  3.3923e+05   7.74e-20
  3.5193e+05   7.32e-20
  3.6511e+05   6.92e-20
  3.7877e+05   6.54e-20
  3.9295e+05   6.18e-20
  4.0766e+05   5.83e-20
  4.2292e+05   5.51e-20
  4.3875e+05   5.19e-20
  4.5518e+05   4.90e-20
  4.7222e+05   4.62e-20
  4.8989e+05   4.35e-20
  5.0823e+05   4.09e-20
  5.2726e+05   3.85e-20
  5.4699e+05   3.62e-20
  5.6747e+05   3.40e-20
  5.8871e+05   3.19e-20
  6.1075e+05   3.00e-20
  6.3361e+05   2.81e-20
  6.5733e+05   2.64e-20
  6.8194e+05   2.47e-20
  7.0746e+05   2.31e-20
  7.3395e+05   2.17e-20
  7.6142e+05   2.03e-20
  7.8992e+05   1.90e-20
  8.1949e+05   1.78e-20
  8.5017e+05   1.67e-20
  8.8199e+05   1.56e-20
  9.1501e+05   1.46e-20
  9.4926e+05   1.36e-20
  9.8479e+05   1.27e-20
  1.0217e+06   1.19e-20
  1.0599e+06   1.11e-20
  1.0996e+06   1.04e-20
  1.1407e+06   9.66e-21
  1.1834e+06   9.00e-21
  1.2277e+06   8.38e-21
  1.2737e+06   7.79e-21
  1.3214e+06   7.25e-21
  1.3708e+06   6.74e-21
  1.4222e+06   6.26e-21
  1.4754e+06   5.81e-21
  1.5306e+06   5.39e-21
  1.5879e+06   4.99e-21
  1.6474e+06   4.62e-21
  1.7090e+06   4.28e-21
  1.7730e+06   3.96e-21
  1.8394e+06   3.66e-21
  1.9082e+06   3.38e-21
  1.9797e+06   3.11e-21
  2.0538e+06   2.87e-21
  2.1306e+06   2.65e-21
  2.2104e+06   2.43e-21
  2.2931e+06   2.24e-21
  2.3790e+06   2.05e-21
  2.4680e+06   1.88e-21
  2.5604e+06   1.72e-21
  2.6563e+06   1.58e-21
  2.7557e+06   1.44e-21
  2.8589e+06   1.32e-21
  2.9659e+06   1.20e-21
  3.0769e+06   1.09e-21
  3.1921e+06   9.94e-22
  3.3116e+06   9.05e-22
  3.4355e+06   8.20e-22
  3.5641e+06   7.42e-22
  3.6976e+06   6.73e-22
  3.8360e+06   6.08e-22
  3.9796e+06   5.47e-22
  4.1285e+06   4.95e-22
  4.2831e+06   4.45e-22
  4.4434e+06   3.98e-22
  4.6097e+06   3.58e-22
  4.7823e+06   3.21e-22
  4.9613e+06   2.85e-22
  5.1470e+06   2.55e-22
  5.3397e+06   2.27e-22
  5.5396e+06   2.01e-22
  5.7470e+06   1.79e-22
  5.9621e+06   1.59e-22
  6.1853e+06   1.40e-22
  6.4168e+06   1.24e-22
  6.6570e+06   1.09e-22
  6.9062e+06   9.57e-23
  7.1647e+06   8.39e-23
  7.4329e+06   7.38e-23
  7.7112e+06   6.43e-23
  7.9998e+06   5.60e-23
  8.2993e+06   4.90e-23
  8.6100e+06   4.25e-23
  8.9323e+06   3.67e-23
  9.2666e+06   3.19e-23
  9.6135e+06   2.75e-23
  9.9734e+06   2.35e-23
  1.0347e+07   2.04e-23
  1.0734e+07   1.75e-23
  1.1136e+07   1.48e-23
  1.1553e+07   1.27e-23
  1.1985e+07   1.09e-23
  1.2434e+07   9.14e-24
  1.2899e+07   7.80e-24
  1.3382e+07   6.62e-24
  1.3883e+07   5.53e-24
  1.4403e+07   4.68e-24
  1.4942e+07   3.95e-24
  1.5501e+07   3.28e-24
  1.6081e+07   2.74e-24
  1.6683e+07   2.30e-24
  1.7308e+07   1.90e-24
  1.7956e+07   1.57e-24
  1.8628e+07   1.31e-24
  1.9325e+07   1.08e-24
  2.0049e+07   8.76e-25
  2.0799e+07   7.27e-25
  2.1578e+07   5.92e-25
  2.2386e+07   4.76e-25
  2.3224e+07   3.91e-25
  2.4093e+07   3.15e-25
  2.4995e+07   2.49e-25
  2.5930e+07   2.00e-25
  2.6901e+07   1.57e-25
  2.7908e+07   1.20e-25
  2.8953e+07   9.23e-26
  3.0037e+07   6.92e-26
  3.1161e+07   5.01e-26
  3.2327e+07   3.54e-26
  3.3537e+07   2.40e-26
  3.4793e+07   1.54e-26
  3.6095e+07   9.26e-27
  3.7446e+07   5.15e-27
  3.8848e+07   2.59e-27
  4.0302e+07   1.14e-27
  4.1811e+07   4.31e-28
  4.3376e+07   1.33e-28
  4.5000e+07   3.21e-29
