#  E [MeV]   Flux [# cm^{-2} s^{-1}  MeV^{-1}]
  3.0000e+04   1.49e-24
  3.0962e+04   1.44e-24
  3.1955e+04   1.39e-24
  3.2979e+04   1.35e-24
  3.4037e+04   1.30e-24
  3.5128e+04   1.26e-24
  3.6254e+04   1.21e-24
  3.7417e+04   1.17e-24
  3.8616e+04   1.13e-24
  3.9855e+04   1.09e-24
  4.1132e+04   1.06e-24
  4.2451e+04   1.02e-24
  4.3812e+04   9.84e-25
  4.5217e+04   9.49e-25
  4.6667e+04   9.16e-25
  4.8163e+04   8.84e-25
  4.9707e+04   8.52e-25
  5.1301e+04   8.21e-25
  5.2946e+04   7.91e-25
  5.4644e+04   7.62e-25
  5.6396e+04   7.34e-25
  5.8204e+04   7.07e-25
  6.0070e+04   6.81e-25
  6.1996e+04   6.55e-25
  6.3984e+04   6.30e-25
  6.6035e+04   6.06e-25
  6.8153e+04   5.83e-25
  7.0338e+04   5.60e-25
  7.2593e+04   5.38e-25
  7.4921e+04   5.17e-25
  7.7323e+04   4.97e-25
  7.9802e+04   4.77e-25
  8.2361e+04   4.58e-25
  8.5002e+04   4.39e-25
  8.7727e+04   4.22e-25
  9.0540e+04   4.04e-25
  9.3443e+04   3.88e-25
  9.6439e+04   3.71e-25
  9.9531e+04   3.56e-25
  1.0272e+05   3.40e-25
  1.0602e+05   3.26e-25
  1.0942e+05   3.12e-25
  1.1292e+05   2.98e-25
  1.1654e+05   2.85e-25
  1.2028e+05   2.72e-25
  1.2414e+05   2.60e-25
  1.2812e+05   2.48e-25
  1.3223e+05   2.37e-25
  1.3646e+05   2.26e-25
  1.4084e+05   2.15e-25
  1.4536e+05   2.05e-25
  1.5002e+05   1.96e-25
  1.5483e+05   1.86e-25
  1.5979e+05   1.77e-25
  1.6491e+05   1.69e-25
  1.7020e+05   1.60e-25
  1.7566e+05   1.52e-25
  1.8129e+05   1.45e-25
  1.8710e+05   1.37e-25
  1.9310e+05   1.30e-25
  1.9929e+05   1.24e-25
  2.0568e+05   1.17e-25
  2.1228e+05   1.11e-25
  2.1909e+05   1.05e-25
  2.2611e+05   9.94e-26
  2.3336e+05   9.39e-26
  2.4084e+05   8.88e-26
  2.4856e+05   8.39e-26
  2.5653e+05   7.92e-26
  2.6476e+05   7.47e-26
  2.7325e+05   7.05e-26
  2.8201e+05   6.64e-26
  2.9105e+05   6.26e-26
  3.0038e+05   5.89e-26
  3.1002e+05   5.54e-26
  3.1996e+05   5.21e-26
  3.3021e+05   4.90e-26
  3.4080e+05   4.60e-26
  3.5173e+05   4.31e-26
  3.6301e+05   4.05e-26
  3.7465e+05   3.79e-26
  3.8666e+05   3.55e-26
  3.9905e+05   3.32e-26
  4.1185e+05   3.10e-26
  4.2506e+05   2.90e-26
  4.3868e+05   2.70e-26
  4.5275e+05   2.52e-26
  4.6727e+05   2.35e-26
  4.8225e+05   2.18e-26
  4.9771e+05   2.03e-26
  5.1367e+05   1.89e-26
  5.3014e+05   1.75e-26
  5.4714e+05   1.63e-26
  5.6468e+05   1.51e-26
  5.8278e+05   1.40e-26
  6.0147e+05   1.30e-26
  6.2075e+05   1.20e-26
  6.4066e+05   1.11e-26
  6.6120e+05   1.03e-26
  6.8240e+05   9.47e-27
  7.0428e+05   8.75e-27
  7.2686e+05   8.07e-27
  7.5017e+05   7.43e-27
  7.7422e+05   6.84e-27
  7.9904e+05   6.30e-27
  8.2466e+05   5.79e-27
  8.5110e+05   5.32e-27
  8.7839e+05   4.89e-27
  9.0656e+05   4.49e-27
  9.3562e+05   4.12e-27
  9.6562e+05   3.77e-27
  9.9658e+05   3.46e-27
  1.0285e+06   3.17e-27
  1.0615e+06   2.90e-27
  1.0956e+06   2.65e-27
  1.1307e+06   2.43e-27
  1.1669e+06   2.22e-27
  1.2043e+06   2.02e-27
  1.2430e+06   1.85e-27
  1.2828e+06   1.69e-27
  1.3239e+06   1.54e-27
  1.3664e+06   1.40e-27
  1.4102e+06   1.28e-27
  1.4554e+06   1.16e-27
  1.5021e+06   1.06e-27
  1.5502e+06   9.60e-28
  1.6000e+06   8.73e-28
  1.6513e+06   7.93e-28
  1.7042e+06   7.17e-28
  1.7588e+06   6.52e-28
  1.8152e+06   5.91e-28
  1.8734e+06   5.35e-28
  1.9335e+06   4.83e-28
  1.9955e+06   4.38e-28
  2.0595e+06   3.97e-28
  2.1255e+06   3.57e-28
  2.1937e+06   3.22e-28
  2.2640e+06   2.92e-28
  2.3366e+06   2.63e-28
  2.4115e+06   2.35e-28
  2.4888e+06   2.13e-28
  2.5686e+06   1.92e-28
  2.6510e+06   1.72e-28
  2.7360e+06   1.54e-28
  2.8237e+06   1.38e-28
  2.9142e+06   1.24e-28
  3.0077e+06   1.11e-28
  3.1041e+06   9.90e-29
  3.2036e+06   8.87e-29
  3.3064e+06   7.91e-29
  3.4124e+06   7.00e-29
  3.5218e+06   6.27e-29
  3.6347e+06   5.59e-29
  3.7512e+06   4.95e-29
  3.8715e+06   4.38e-29
  3.9957e+06   3.90e-29
  4.1238e+06   3.46e-29
  4.2560e+06   3.04e-29
  4.3924e+06   2.69e-29
  4.5333e+06   2.38e-29
  4.6786e+06   2.10e-29
  4.8286e+06   1.83e-29
  4.9835e+06   1.62e-29
  5.1433e+06   1.43e-29
  5.3082e+06   1.25e-29
  5.4784e+06   1.09e-29
  5.6540e+06   9.59e-30
  5.8353e+06   8.38e-30
  6.0224e+06   7.26e-30
  6.2155e+06   6.35e-30
  6.4148e+06   5.55e-30
  6.6205e+06   4.81e-30
  6.8327e+06   4.13e-30
  7.0518e+06   3.60e-30
  7.2779e+06   3.11e-30
  7.5113e+06   2.66e-30
  7.7521e+06   2.28e-30
  8.0007e+06   1.97e-30
  8.2572e+06   1.69e-30
  8.5219e+06   1.43e-30
  8.7952e+06   1.23e-30
  9.0772e+06   1.06e-30
  9.3682e+06   9.03e-31
  9.6686e+06   7.65e-31
  9.9786e+06   6.61e-31
  1.0299e+07   5.68e-31
  1.0629e+07   4.83e-31
  1.0970e+07   4.13e-31
  1.1321e+07   3.56e-31
  1.1684e+07   3.04e-31
  1.2059e+07   2.58e-31
  1.2446e+07   2.22e-31
  1.2845e+07   1.91e-31
  1.3256e+07   1.62e-31
  1.3681e+07   1.37e-31
  1.4120e+07   1.16e-31
  1.4573e+07   9.76e-32
  1.5040e+07   8.11e-32
  1.5522e+07   6.67e-32
  1.6020e+07   5.43e-32
