#  E [MeV]   Flux [# cm^{-2} s^{-1}  MeV^{-1}]
  3.0000e+04   9.25e-25
  3.1141e+04   8.84e-25
  3.2326e+04   8.44e-25
  3.3556e+04   8.07e-25
  3.4832e+04   7.70e-25
  3.6157e+04   7.35e-25
  3.7533e+04   7.02e-25
  3.8961e+04   6.70e-25
  4.0443e+04   6.39e-25
  4.1982e+04   6.10e-25
  4.3579e+04   5.82e-25
  4.5237e+04   5.55e-25
  4.6958e+04   5.29e-25
  4.8744e+04   5.05e-25
  5.0598e+04   4.81e-25
  5.2523e+04   4.58e-25
  5.4521e+04   4.37e-25
  5.6596e+04   4.16e-25
  5.8749e+04   3.97e-25
  6.0984e+04   3.78e-25
  6.3304e+04   3.60e-25
  6.5712e+04   3.43e-25
  6.8212e+04   3.26e-25
  7.0807e+04   3.11e-25
  7.3500e+04   2.96e-25
  7.6297e+04   2.81e-25
  7.9199e+04   2.68e-25
  8.2212e+04   2.54e-25
  8.5340e+04   2.42e-25
  8.8586e+04   2.30e-25
  9.1956e+04   2.19e-25
  9.5455e+04   2.08e-25
  9.9086e+04   1.98e-25
  1.0286e+05   1.88e-25
  1.0677e+05   1.78e-25
  1.1083e+05   1.69e-25
  1.1505e+05   1.61e-25
  1.1942e+05   1.53e-25
  1.2397e+05   1.45e-25
  1.2868e+05   1.38e-25
  1.3358e+05   1.30e-25
  1.3866e+05   1.24e-25
  1.4394e+05   1.17e-25
  1.4941e+05   1.11e-25
  1.5509e+05   1.05e-25
  1.6100e+05   9.99e-26
  1.6712e+05   9.46e-26
  1.7348e+05   8.96e-26
  1.8008e+05   8.48e-26
  1.8693e+05   8.02e-26
  1.9404e+05   7.59e-26
  2.0142e+05   7.17e-26
  2.0908e+05   6.78e-26
  2.1704e+05   6.40e-26
  2.2529e+05   6.04e-26
  2.3387e+05   5.70e-26
  2.4276e+05   5.38e-26
  2.5200e+05   5.07e-26
  2.6158e+05   4.78e-26
  2.7154e+05   4.50e-26
  2.8187e+05   4.24e-26
  2.9259e+05   3.99e-26
  3.0372e+05   3.75e-26
  3.1527e+05   3.52e-26
  3.2727e+05   3.30e-26
  3.3972e+05   3.10e-26
  3.5264e+05   2.90e-26
  3.6606e+05   2.72e-26
  3.7998e+05   2.55e-26
  3.9444e+05   2.38e-26
  4.0945e+05   2.22e-26
  4.2502e+05   2.08e-26
  4.4119e+05   1.94e-26
  4.5798e+05   1.80e-26
  4.7540e+05   1.68e-26
  4.9348e+05   1.56e-26
  5.1226e+05   1.45e-26
  5.3175e+05   1.35e-26
  5.5198e+05   1.25e-26
  5.7297e+05   1.16e-26
  5.9477e+05   1.07e-26
  6.1740e+05   9.93e-27
  6.4089e+05   9.17e-27
  6.6527e+05   8.47e-27
  6.9058e+05   7.82e-27
  7.1685e+05   7.21e-27
  7.4412e+05   6.65e-27
  7.7243e+05   6.13e-27
  8.0181e+05   5.65e-27
  8.3232e+05   5.21e-27
  8.6398e+05   4.80e-27
  8.9685e+05   4.42e-27
  9.3097e+05   4.07e-27
  9.6638e+05   3.75e-27
  1.0031e+06   3.45e-27
  1.0413e+06   3.18e-27
  1.0809e+06   2.93e-27
  1.1220e+06   2.70e-27
  1.1647e+06   2.48e-27
  1.2090e+06   2.28e-27
  1.2550e+06   2.10e-27
  1.3028e+06   1.93e-27
  1.3523e+06   1.77e-27
  1.4038e+06   1.63e-27
  1.4572e+06   1.50e-27
  1.5126e+06   1.37e-27
  1.5702e+06   1.26e-27
  1.6299e+06   1.16e-27
  1.6919e+06   1.06e-27
  1.7563e+06   9.73e-28
  1.8231e+06   8.92e-28
  1.8925e+06   8.17e-28
  1.9645e+06   7.48e-28
  2.0392e+06   6.85e-28
  2.1168e+06   6.25e-28
  2.1973e+06   5.72e-28
  2.2809e+06   5.22e-28
  2.3677e+06   4.76e-28
  2.4577e+06   4.34e-28
  2.5512e+06   3.95e-28
  2.6483e+06   3.58e-28
  2.7490e+06   3.25e-28
  2.8536e+06   2.95e-28
  2.9622e+06   2.67e-28
  3.0749e+06   2.41e-28
  3.1918e+06   2.18e-28
  3.3133e+06   1.96e-28
  3.4393e+06   1.76e-28
  3.5702e+06   1.58e-28
  3.7060e+06   1.42e-28
  3.8470e+06   1.26e-28
  3.9933e+06   1.13e-28
  4.1452e+06   1.00e-28
  4.3029e+06   8.91e-29
  4.4666e+06   7.91e-29
  4.6366e+06   6.98e-29
  4.8129e+06   6.14e-29
  4.9960e+06   5.40e-29
  5.1861e+06   4.72e-29
  5.3834e+06   4.10e-29
  5.5882e+06   3.58e-29
  5.8008e+06   3.09e-29
  6.0215e+06   2.66e-29
  6.2506e+06   2.29e-29
  6.4883e+06   1.96e-29
  6.7352e+06   1.66e-29
  6.9914e+06   1.42e-29
  7.2574e+06   1.20e-29
  7.5335e+06   9.99e-30
  7.8201e+06   8.40e-30
  8.1176e+06   6.99e-30
  8.4264e+06   5.73e-30
  8.7470e+06   4.73e-30
  9.0797e+06   3.86e-30
  9.4251e+06   3.09e-30
  9.7837e+06   2.49e-30
  1.0156e+07   1.99e-30
  1.0542e+07   1.55e-30
  1.0943e+07   1.22e-30
  1.1360e+07   9.41e-31
  1.1792e+07   7.12e-31
  1.2240e+07   5.38e-31
  1.2706e+07   4.01e-31
  1.3189e+07   2.91e-31
  1.3691e+07   2.09e-31
  1.4212e+07   1.49e-31
  1.4753e+07   1.02e-31
  1.5314e+07   6.90e-32
  1.5897e+07   4.58e-32
  1.6501e+07   2.92e-32
  1.7129e+07   1.81e-32
  1.7781e+07   1.09e-32
  1.8457e+07   6.27e-33
  1.9159e+07   3.43e-33
  1.9888e+07   1.81e-33
  2.0645e+07   8.91e-34
  2.1430e+07   4.06e-34
  2.2245e+07   1.76e-34
  2.3092e+07   6.84e-35
  2.3970e+07   2.37e-35
  2.4882e+07   7.49e-36
  2.5829e+07   2.02e-36
  2.6811e+07   4.53e-37
  2.7831e+07   8.51e-38
  2.8890e+07   1.24e-38
  2.9989e+07   1.34e-39
  3.1130e+07   1.05e-40
  3.2314e+07   5.35e-42
  3.3544e+07   1.62e-43
  3.4820e+07   2.64e-45
  3.6144e+07   1.98e-47
  3.7519e+07   5.66e-50
  3.8947e+07   4.93e-53
  4.0428e+07   9.55e-57
  4.1966e+07   2.78e-61
  4.3563e+07   7.21e-67
  4.5220e+07   5.36e-72
  4.6941e+07   4.70e-72
  4.8726e+07   4.15e-72
  5.0580e+07   3.68e-72
