#  E [MeV]   Flux [# cm^{-2} s^{-1}  MeV^{-1}]
  3.0000e+04   2.17e-24
  3.0962e+04   2.10e-24
  3.1955e+04   2.03e-24
  3.2979e+04   1.96e-24
  3.4037e+04   1.89e-24
  3.5128e+04   1.83e-24
  3.6254e+04   1.77e-24
  3.7417e+04   1.71e-24
  3.8616e+04   1.65e-24
  3.9855e+04   1.59e-24
  4.1132e+04   1.54e-24
  4.2451e+04   1.48e-24
  4.3812e+04   1.43e-24
  4.5217e+04   1.38e-24
  4.6667e+04   1.33e-24
  4.8163e+04   1.28e-24
  4.9707e+04   1.24e-24
  5.1301e+04   1.19e-24
  5.2946e+04   1.15e-24
  5.4644e+04   1.10e-24
  5.6396e+04   1.06e-24
  5.8204e+04   1.02e-24
  6.0070e+04   9.85e-25
  6.1996e+04   9.48e-25
  6.3984e+04   9.11e-25
  6.6035e+04   8.76e-25
  6.8153e+04   8.42e-25
  7.0338e+04   8.09e-25
  7.2593e+04   7.77e-25
  7.4921e+04   7.46e-25
  7.7323e+04   7.16e-25
  7.9802e+04   6.88e-25
  8.2361e+04   6.60e-25
  8.5002e+04   6.33e-25
  8.7727e+04   6.06e-25
  9.0540e+04   5.81e-25
  9.3443e+04   5.57e-25
  9.6439e+04   5.33e-25
  9.9531e+04   5.10e-25
  1.0272e+05   4.88e-25
  1.0602e+05   4.66e-25
  1.0942e+05   4.46e-25
  1.1292e+05   4.26e-25
  1.1654e+05   4.07e-25
  1.2028e+05   3.88e-25
  1.2414e+05   3.70e-25
  1.2812e+05   3.53e-25
  1.3223e+05   3.37e-25
  1.3646e+05   3.21e-25
  1.4084e+05   3.05e-25
  1.4536e+05   2.91e-25
  1.5002e+05   2.76e-25
  1.5483e+05   2.63e-25
  1.5979e+05   2.50e-25
  1.6491e+05   2.37e-25
  1.7020e+05   2.25e-25
  1.7566e+05   2.13e-25
  1.8129e+05   2.02e-25
  1.8710e+05   1.92e-25
  1.9310e+05   1.81e-25
  1.9929e+05   1.72e-25
  2.0568e+05   1.62e-25
  2.1228e+05   1.53e-25
  2.1909e+05   1.45e-25
  2.2611e+05   1.36e-25
  2.3336e+05   1.29e-25
  2.4084e+05   1.21e-25
  2.4856e+05   1.14e-25
  2.5653e+05   1.07e-25
  2.6476e+05   1.01e-25
  2.7325e+05   9.49e-26
  2.8201e+05   8.91e-26
  2.9105e+05   8.35e-26
  3.0038e+05   7.83e-26
  3.1002e+05   7.33e-26
  3.1996e+05   6.86e-26
  3.3021e+05   6.41e-26
  3.4080e+05   5.99e-26
  3.5173e+05   5.59e-26
  3.6301e+05   5.21e-26
  3.7465e+05   4.85e-26
  3.8666e+05   4.51e-26
  3.9905e+05   4.19e-26
  4.1185e+05   3.89e-26
  4.2506e+05   3.61e-26
  4.3868e+05   3.34e-26
  4.5275e+05   3.09e-26
  4.6727e+05   2.86e-26
  4.8225e+05   2.64e-26
  4.9771e+05   2.44e-26
  5.1367e+05   2.25e-26
  5.3014e+05   2.07e-26
  5.4714e+05   1.91e-26
  5.6468e+05   1.75e-26
  5.8278e+05   1.61e-26
  6.0147e+05   1.48e-26
  6.2075e+05   1.36e-26
  6.4066e+05   1.24e-26
  6.6120e+05   1.14e-26
  6.8240e+05   1.04e-26
  7.0428e+05   9.52e-27
  7.2686e+05   8.69e-27
  7.5017e+05   7.93e-27
  7.7422e+05   7.24e-27
  7.9904e+05   6.60e-27
  8.2466e+05   6.01e-27
  8.5110e+05   5.47e-27
  8.7839e+05   4.98e-27
  9.0656e+05   4.53e-27
  9.3562e+05   4.11e-27
  9.6562e+05   3.74e-27
  9.9658e+05   3.40e-27
  1.0285e+06   3.09e-27
  1.0615e+06   2.80e-27
  1.0956e+06   2.54e-27
  1.1307e+06   2.31e-27
  1.1669e+06   2.09e-27
  1.2043e+06   1.89e-27
  1.2430e+06   1.72e-27
  1.2828e+06   1.55e-27
  1.3239e+06   1.40e-27
  1.3664e+06   1.27e-27
  1.4102e+06   1.15e-27
  1.4554e+06   1.04e-27
  1.5021e+06   9.38e-28
  1.5502e+06   8.49e-28
  1.6000e+06   7.66e-28
  1.6513e+06   6.89e-28
  1.7042e+06   6.23e-28
  1.7588e+06   5.63e-28
  1.8152e+06   5.06e-28
  1.8734e+06   4.55e-28
  1.9335e+06   4.11e-28
  1.9955e+06   3.70e-28
  2.0595e+06   3.32e-28
  2.1255e+06   2.98e-28
  2.1937e+06   2.69e-28
  2.2640e+06   2.41e-28
  2.3366e+06   2.15e-28
  2.4115e+06   1.93e-28
  2.4888e+06   1.73e-28
  2.5686e+06   1.55e-28
  2.6510e+06   1.38e-28
  2.7360e+06   1.24e-28
  2.8237e+06   1.10e-28
  2.9142e+06   9.79e-29
  3.0077e+06   8.72e-29
  3.1041e+06   7.78e-29
  3.2036e+06   6.90e-29
  3.3064e+06   6.07e-29
  3.4124e+06   5.41e-29
  3.5218e+06   4.79e-29
  3.6347e+06   4.22e-29
  3.7512e+06   3.70e-29
  3.8715e+06   3.28e-29
  3.9957e+06   2.89e-29
  4.1238e+06   2.52e-29
  4.2560e+06   2.21e-29
  4.3924e+06   1.94e-29
  4.5333e+06   1.69e-29
  4.6786e+06   1.46e-29
  4.8286e+06   1.28e-29
  4.9835e+06   1.12e-29
  5.1433e+06   9.65e-30
  5.3082e+06   8.32e-30
  5.4784e+06   7.23e-30
  5.6540e+06   6.23e-30
  5.8353e+06   5.31e-30
  6.0224e+06   4.57e-30
  6.2155e+06   3.93e-30
  6.4148e+06   3.34e-30
  6.6205e+06   2.82e-30
  6.8327e+06   2.40e-30
  7.0518e+06   2.03e-30
  7.2779e+06   1.70e-30
  7.5113e+06   1.42e-30
  7.7521e+06   1.19e-30
  8.0007e+06   9.92e-31
  8.2572e+06   8.15e-31
  8.5219e+06   6.78e-31
  8.7952e+06   5.62e-31
  9.0772e+06   4.61e-31
  9.3682e+06   3.74e-31
  9.6686e+06   3.09e-31
  9.9786e+06   2.53e-31
  1.0299e+07   2.05e-31
  1.0629e+07   1.65e-31
  1.0970e+07   1.34e-31
  1.1321e+07   1.08e-31
  1.1684e+07   8.54e-32
  1.2059e+07   6.82e-32
  1.2446e+07   5.41e-32
  1.2845e+07   4.22e-32
  1.3256e+07   3.25e-32
  1.3681e+07   2.49e-32
  1.4120e+07   1.88e-32
  1.4573e+07   1.39e-32
  1.5040e+07   1.00e-32
  1.5522e+07   7.11e-33
  1.6020e+07   4.91e-33
