#  E [MeV]   Flux [# cm^{-2} s^{-1}  MeV^{-1}]
  3.0000e+04   1.22e-22
  3.0962e+04   1.18e-22
  3.1955e+04   1.14e-22
  3.2979e+04   1.10e-22
  3.4037e+04   1.07e-22
  3.5128e+04   1.03e-22
  3.6254e+04   9.96e-23
  3.7417e+04   9.62e-23
  3.8616e+04   9.30e-23
  3.9855e+04   8.98e-23
  4.1132e+04   8.67e-23
  4.2451e+04   8.37e-23
  4.3812e+04   8.08e-23
  4.5217e+04   7.80e-23
  4.6667e+04   7.53e-23
  4.8163e+04   7.26e-23
  4.9707e+04   7.01e-23
  5.1301e+04   6.76e-23
  5.2946e+04   6.51e-23
  5.4644e+04   6.28e-23
  5.6396e+04   6.05e-23
  5.8204e+04   5.83e-23
  6.0070e+04   5.61e-23
  6.1996e+04   5.40e-23
  6.3984e+04   5.20e-23
  6.6035e+04   5.00e-23
  6.8153e+04   4.81e-23
  7.0338e+04   4.63e-23
  7.2593e+04   4.45e-23
  7.4921e+04   4.28e-23
  7.7323e+04   4.11e-23
  7.9802e+04   3.95e-23
  8.2361e+04   3.80e-23
  8.5002e+04   3.64e-23
  8.7727e+04   3.50e-23
  9.0540e+04   3.36e-23
  9.3443e+04   3.22e-23
  9.6439e+04   3.09e-23
  9.9531e+04   2.96e-23
  1.0272e+05   2.84e-23
  1.0602e+05   2.72e-23
  1.0942e+05   2.60e-23
  1.1292e+05   2.49e-23
  1.1654e+05   2.38e-23
  1.2028e+05   2.28e-23
  1.2414e+05   2.18e-23
  1.2812e+05   2.08e-23
  1.3223e+05   1.99e-23
  1.3646e+05   1.90e-23
  1.4084e+05   1.82e-23
  1.4536e+05   1.73e-23
  1.5002e+05   1.65e-23
  1.5483e+05   1.58e-23
  1.5979e+05   1.50e-23
  1.6491e+05   1.43e-23
  1.7020e+05   1.36e-23
  1.7566e+05   1.30e-23
  1.8129e+05   1.24e-23
  1.8710e+05   1.18e-23
  1.9310e+05   1.12e-23
  1.9929e+05   1.06e-23
  2.0568e+05   1.01e-23
  2.1228e+05   9.59e-24
  2.1909e+05   9.10e-24
  2.2611e+05   8.64e-24
  2.3336e+05   8.19e-24
  2.4084e+05   7.77e-24
  2.4856e+05   7.36e-24
  2.5653e+05   6.98e-24
  2.6476e+05   6.61e-24
  2.7325e+05   6.26e-24
  2.8201e+05   5.92e-24
  2.9105e+05   5.60e-24
  3.0038e+05   5.30e-24
  3.1002e+05   5.01e-24
  3.1996e+05   4.73e-24
  3.3021e+05   4.47e-24
  3.4080e+05   4.22e-24
  3.5173e+05   3.98e-24
  3.6301e+05   3.75e-24
  3.7465e+05   3.54e-24
  3.8666e+05   3.33e-24
  3.9905e+05   3.14e-24
  4.1185e+05   2.95e-24
  4.2506e+05   2.78e-24
  4.3868e+05   2.61e-24
  4.5275e+05   2.45e-24
  4.6727e+05   2.30e-24
  4.8225e+05   2.16e-24
  4.9771e+05   2.03e-24
  5.1367e+05   1.90e-24
  5.3014e+05   1.78e-24
  5.4714e+05   1.67e-24
  5.6468e+05   1.56e-24
  5.8278e+05   1.46e-24
  6.0147e+05   1.36e-24
  6.2075e+05   1.27e-24
  6.4066e+05   1.19e-24
  6.6120e+05   1.11e-24
  6.8240e+05   1.03e-24
  7.0428e+05   9.64e-25
  7.2686e+05   8.98e-25
  7.5017e+05   8.37e-25
  7.7422e+05   7.78e-25
  7.9904e+05   7.23e-25
  8.2466e+05   6.72e-25
  8.5110e+05   6.24e-25
  8.7839e+05   5.78e-25
  9.0656e+05   5.36e-25
  9.3562e+05   4.97e-25
  9.6562e+05   4.59e-25
  9.9658e+05   4.24e-25
  1.0285e+06   3.93e-25
  1.0615e+06   3.63e-25
  1.0956e+06   3.35e-25
  1.1307e+06   3.09e-25
  1.1669e+06   2.85e-25
  1.2043e+06   2.63e-25
  1.2430e+06   2.42e-25
  1.2828e+06   2.22e-25
  1.3239e+06   2.05e-25
  1.3664e+06   1.88e-25
  1.4102e+06   1.72e-25
  1.4554e+06   1.58e-25
  1.5021e+06   1.45e-25
  1.5502e+06   1.33e-25
  1.6000e+06   1.21e-25
  1.6513e+06   1.11e-25
  1.7042e+06   1.01e-25
  1.7588e+06   9.22e-26
  1.8152e+06   8.42e-26
  1.8734e+06   7.69e-26
  1.9335e+06   7.00e-26
  1.9955e+06   6.34e-26
  2.0595e+06   5.79e-26
  2.1255e+06   5.26e-26
  2.1937e+06   4.77e-26
  2.2640e+06   4.32e-26
  2.3366e+06   3.93e-26
  2.4115e+06   3.56e-26
  2.4888e+06   3.20e-26
  2.5686e+06   2.90e-26
  2.6510e+06   2.63e-26
  2.7360e+06   2.37e-26
  2.8237e+06   2.13e-26
  2.9142e+06   1.93e-26
  3.0077e+06   1.74e-26
  3.1041e+06   1.56e-26
  3.2036e+06   1.40e-26
  3.3064e+06   1.26e-26
  3.4124e+06   1.13e-26
  3.5218e+06   1.01e-26
  3.6347e+06   9.08e-27
  3.7512e+06   8.15e-27
  3.8715e+06   7.27e-27
  3.9957e+06   6.46e-27
  4.1238e+06   5.81e-27
  4.2560e+06   5.19e-27
  4.3924e+06   4.61e-27
  4.5333e+06   4.11e-27
  4.6786e+06   3.68e-27
  4.8286e+06   3.27e-27
  4.9835e+06   2.88e-27
  5.1433e+06   2.58e-27
  5.3082e+06   2.30e-27
  5.4784e+06   2.04e-27
  5.6540e+06   1.80e-27
  5.8353e+06   1.61e-27
  6.0224e+06   1.43e-27
  6.2155e+06   1.26e-27
  6.4148e+06   1.12e-27
  6.6205e+06   9.95e-28
  6.8327e+06   8.80e-28
  7.0518e+06   7.72e-28
  7.2779e+06   6.87e-28
  7.5113e+06   6.08e-28
  7.7521e+06   5.34e-28
  8.0007e+06   4.69e-28
  8.2572e+06   4.18e-28
  8.5219e+06   3.69e-28
  8.7952e+06   3.24e-28
  9.0772e+06   2.88e-28
  9.3682e+06   2.57e-28
  9.6686e+06   2.28e-28
  9.9786e+06   2.00e-28
  1.0299e+07   1.81e-28
  1.0629e+07   1.64e-28
  1.0970e+07   1.47e-28
  1.1321e+07   1.32e-28
  1.1684e+07   1.21e-28
  1.2059e+07   1.11e-28
  1.2446e+07   1.01e-28
  1.2845e+07   9.30e-29
  1.3256e+07   8.66e-29
  1.3681e+07   8.04e-29
  1.4120e+07   7.46e-29
  1.4573e+07   7.01e-29
  1.5040e+07   6.58e-29
  1.5522e+07   6.16e-29
  1.6020e+07   5.77e-29
