#  E [MeV]   Flux [# cm^{-2} s^{-1}  MeV^{-1}]
  3.0000e+04   4.50e-25
  3.1141e+04   4.32e-25
  3.2326e+04   4.15e-25
  3.3556e+04   3.98e-25
  3.4832e+04   3.82e-25
  3.6157e+04   3.67e-25
  3.7533e+04   3.52e-25
  3.8961e+04   3.38e-25
  4.0443e+04   3.24e-25
  4.1982e+04   3.11e-25
  4.3579e+04   2.99e-25
  4.5237e+04   2.86e-25
  4.6958e+04   2.75e-25
  4.8744e+04   2.64e-25
  5.0598e+04   2.53e-25
  5.2523e+04   2.42e-25
  5.4521e+04   2.33e-25
  5.6596e+04   2.23e-25
  5.8749e+04   2.14e-25
  6.0984e+04   2.05e-25
  6.3304e+04   1.96e-25
  6.5712e+04   1.88e-25
  6.8212e+04   1.80e-25
  7.0807e+04   1.73e-25
  7.3500e+04   1.66e-25
  7.6297e+04   1.59e-25
  7.9199e+04   1.52e-25
  8.2212e+04   1.45e-25
  8.5340e+04   1.39e-25
  8.8586e+04   1.33e-25
  9.1956e+04   1.27e-25
  9.5455e+04   1.22e-25
  9.9086e+04   1.17e-25
  1.0286e+05   1.11e-25
  1.0677e+05   1.07e-25
  1.1083e+05   1.02e-25
  1.1505e+05   9.73e-26
  1.1942e+05   9.30e-26
  1.2397e+05   8.88e-26
  1.2868e+05   8.48e-26
  1.3358e+05   8.09e-26
  1.3866e+05   7.72e-26
  1.4394e+05   7.36e-26
  1.4941e+05   7.02e-26
  1.5509e+05   6.69e-26
  1.6100e+05   6.37e-26
  1.6712e+05   6.07e-26
  1.7348e+05   5.77e-26
  1.8008e+05   5.49e-26
  1.8693e+05   5.22e-26
  1.9404e+05   4.96e-26
  2.0142e+05   4.71e-26
  2.0908e+05   4.47e-26
  2.1704e+05   4.24e-26
  2.2529e+05   4.02e-26
  2.3387e+05   3.81e-26
  2.4276e+05   3.61e-26
  2.5200e+05   3.41e-26
  2.6158e+05   3.23e-26
  2.7154e+05   3.05e-26
  2.8187e+05   2.88e-26
  2.9259e+05   2.72e-26
  3.0372e+05   2.56e-26
  3.1527e+05   2.42e-26
  3.2727e+05   2.27e-26
  3.3972e+05   2.14e-26
  3.5264e+05   2.01e-26
  3.6606e+05   1.89e-26
  3.7998e+05   1.77e-26
  3.9444e+05   1.66e-26
  4.0945e+05   1.55e-26
  4.2502e+05   1.45e-26
  4.4119e+05   1.36e-26
  4.5798e+05   1.27e-26
  4.7540e+05   1.18e-26
  4.9348e+05   1.10e-26
  5.1226e+05   1.03e-26
  5.3175e+05   9.57e-27
  5.5198e+05   8.90e-27
  5.7297e+05   8.27e-27
  5.9477e+05   7.68e-27
  6.1740e+05   7.13e-27
  6.4089e+05   6.61e-27
  6.6527e+05   6.12e-27
  6.9058e+05   5.67e-27
  7.1685e+05   5.25e-27
  7.4412e+05   4.86e-27
  7.7243e+05   4.49e-27
  8.0181e+05   4.15e-27
  8.3232e+05   3.84e-27
  8.6398e+05   3.55e-27
  8.9685e+05   3.27e-27
  9.3097e+05   3.02e-27
  9.6638e+05   2.79e-27
  1.0031e+06   2.58e-27
  1.0413e+06   2.38e-27
  1.0809e+06   2.19e-27
  1.1220e+06   2.02e-27
  1.1647e+06   1.87e-27
  1.2090e+06   1.72e-27
  1.2550e+06   1.59e-27
  1.3028e+06   1.46e-27
  1.3523e+06   1.35e-27
  1.4038e+06   1.24e-27
  1.4572e+06   1.14e-27
  1.5126e+06   1.05e-27
  1.5702e+06   9.71e-28
  1.6299e+06   8.95e-28
  1.6919e+06   8.24e-28
  1.7563e+06   7.59e-28
  1.8231e+06   6.98e-28
  1.8925e+06   6.42e-28
  1.9645e+06   5.91e-28
  2.0392e+06   5.44e-28
  2.1168e+06   4.99e-28
  2.1973e+06   4.59e-28
  2.2809e+06   4.22e-28
  2.3677e+06   3.87e-28
  2.4577e+06   3.55e-28
  2.5512e+06   3.25e-28
  2.6483e+06   2.97e-28
  2.7490e+06   2.72e-28
  2.8536e+06   2.49e-28
  2.9622e+06   2.27e-28
  3.0749e+06   2.07e-28
  3.1918e+06   1.89e-28
  3.3133e+06   1.72e-28
  3.4393e+06   1.56e-28
  3.5702e+06   1.42e-28
  3.7060e+06   1.28e-28
  3.8470e+06   1.16e-28
  3.9933e+06   1.05e-28
  4.1452e+06   9.45e-29
  4.3029e+06   8.50e-29
  4.4666e+06   7.65e-29
  4.6366e+06   6.85e-29
  4.8129e+06   6.12e-29
  4.9960e+06   5.47e-29
  5.1861e+06   4.86e-29
  5.3834e+06   4.31e-29
  5.5882e+06   3.82e-29
  5.8008e+06   3.37e-29
  6.0215e+06   2.96e-29
  6.2506e+06   2.60e-29
  6.4883e+06   2.27e-29
  6.7352e+06   1.97e-29
  6.9914e+06   1.71e-29
  7.2574e+06   1.48e-29
  7.5335e+06   1.27e-29
  7.8201e+06   1.09e-29
  8.1176e+06   9.23e-30
  8.4264e+06   7.77e-30
  8.7470e+06   6.55e-30
  9.0797e+06   5.48e-30
  9.4251e+06   4.52e-30
  9.7837e+06   3.73e-30
  1.0156e+07   3.04e-30
  1.0542e+07   2.45e-30
  1.0943e+07   1.96e-30
  1.1360e+07   1.55e-30
  1.1792e+07   1.21e-30
  1.2240e+07   9.33e-31
  1.2706e+07   7.11e-31
  1.3189e+07   5.30e-31
  1.3691e+07   3.90e-31
  1.4212e+07   2.83e-31
  1.4753e+07   1.99e-31
  1.5314e+07   1.37e-31
  1.5897e+07   9.28e-32
  1.6501e+07   6.03e-32
  1.7129e+07   3.80e-32
  1.7781e+07   2.33e-32
  1.8457e+07   1.35e-32
  1.9159e+07   7.49e-33
  1.9888e+07   3.97e-33
  2.0645e+07   1.96e-33
  2.1430e+07   8.93e-34
  2.2245e+07   3.82e-34
  2.3092e+07   1.47e-34
  2.3970e+07   5.03e-35
  2.4882e+07   1.55e-35
  2.5829e+07   4.06e-36
  2.6811e+07   8.78e-37
  2.7831e+07   1.59e-37
  2.8890e+07   2.23e-38
  2.9989e+07   2.27e-39
  3.1130e+07   1.69e-40
  3.2314e+07   8.08e-42
  3.3544e+07   2.26e-43
  3.4820e+07   3.44e-45
  3.6144e+07   2.39e-47
  3.7519e+07   6.18e-50
  3.8947e+07   4.97e-53
  4.0428e+07   8.87e-57
  4.1966e+07   2.32e-61
  4.3563e+07   5.47e-67
  4.5220e+07   3.65e-72
  4.6941e+07   2.77e-72
  4.8726e+07   2.09e-72
  5.0580e+07   1.54e-72
