#  E [MeV]   Flux [# cm^{-2} s^{-1}  MeV^{-1}]
  3.0000e+04   1.10e-25
  3.1232e+04   1.05e-25
  3.2514e+04   1.01e-25
  3.3849e+04   9.62e-26
  3.5238e+04   9.20e-26
  3.6685e+04   8.80e-26
  3.8191e+04   8.41e-26
  3.9759e+04   8.04e-26
  4.1391e+04   7.69e-26
  4.3090e+04   7.35e-26
  4.4859e+04   7.02e-26
  4.6701e+04   6.71e-26
  4.8618e+04   6.41e-26
  5.0614e+04   6.13e-26
  5.2692e+04   5.86e-26
  5.4855e+04   5.59e-26
  5.7107e+04   5.34e-26
  5.9451e+04   5.11e-26
  6.1892e+04   4.88e-26
  6.4433e+04   4.66e-26
  6.7078e+04   4.45e-26
  6.9832e+04   4.25e-26
  7.2699e+04   4.05e-26
  7.5683e+04   3.87e-26
  7.8790e+04   3.69e-26
  8.2025e+04   3.53e-26
  8.5392e+04   3.36e-26
  8.8898e+04   3.21e-26
  9.2547e+04   3.06e-26
  9.6347e+04   2.92e-26
  1.0030e+05   2.79e-26
  1.0442e+05   2.66e-26
  1.0871e+05   2.53e-26
  1.1317e+05   2.41e-26
  1.1782e+05   2.30e-26
  1.2265e+05   2.19e-26
  1.2769e+05   2.09e-26
  1.3293e+05   1.99e-26
  1.3839e+05   1.89e-26
  1.4407e+05   1.80e-26
  1.4998e+05   1.71e-26
  1.5614e+05   1.63e-26
  1.6255e+05   1.55e-26
  1.6922e+05   1.47e-26
  1.7617e+05   1.40e-26
  1.8340e+05   1.33e-26
  1.9093e+05   1.26e-26
  1.9877e+05   1.20e-26
  2.0693e+05   1.14e-26
  2.1543e+05   1.08e-26
  2.2427e+05   1.02e-26
  2.3348e+05   9.68e-27
  2.4306e+05   9.16e-27
  2.5304e+05   8.67e-27
  2.6343e+05   8.20e-27
  2.7424e+05   7.75e-27
  2.8550e+05   7.31e-27
  2.9722e+05   6.90e-27
  3.0942e+05   6.51e-27
  3.2213e+05   6.13e-27
  3.3535e+05   5.77e-27
  3.4912e+05   5.43e-27
  3.6345e+05   5.10e-27
  3.7837e+05   4.79e-27
  3.9390e+05   4.50e-27
  4.1008e+05   4.22e-27
  4.2691e+05   3.95e-27
  4.4444e+05   3.70e-27
  4.6268e+05   3.46e-27
  4.8168e+05   3.24e-27
  5.0145e+05   3.02e-27
  5.2204e+05   2.82e-27
  5.4347e+05   2.63e-27
  5.6578e+05   2.45e-27
  5.8901e+05   2.28e-27
  6.1319e+05   2.12e-27
  6.3836e+05   1.97e-27
  6.6457e+05   1.83e-27
  6.9185e+05   1.70e-27
  7.2025e+05   1.58e-27
  7.4982e+05   1.46e-27
  7.8061e+05   1.36e-27
  8.1265e+05   1.26e-27
  8.4601e+05   1.17e-27
  8.8075e+05   1.08e-27
  9.1690e+05   9.99e-28
  9.5455e+05   9.25e-28
  9.9373e+05   8.56e-28
  1.0345e+06   7.92e-28
  1.0770e+06   7.32e-28
  1.1212e+06   6.77e-28
  1.1672e+06   6.26e-28
  1.2152e+06   5.79e-28
  1.2650e+06   5.35e-28
  1.3170e+06   4.95e-28
  1.3711e+06   4.57e-28
  1.4273e+06   4.23e-28
  1.4859e+06   3.91e-28
  1.5469e+06   3.61e-28
  1.6104e+06   3.34e-28
  1.6766e+06   3.08e-28
  1.7454e+06   2.85e-28
  1.8170e+06   2.63e-28
  1.8916e+06   2.43e-28
  1.9693e+06   2.24e-28
  2.0501e+06   2.07e-28
  2.1343e+06   1.91e-28
  2.2219e+06   1.76e-28
  2.3131e+06   1.62e-28
  2.4081e+06   1.49e-28
  2.5070e+06   1.37e-28
  2.6099e+06   1.26e-28
  2.7170e+06   1.16e-28
  2.8286e+06   1.07e-28
  2.9447e+06   9.78e-29
  3.0656e+06   8.97e-29
  3.1914e+06   8.21e-29
  3.3225e+06   7.51e-29
  3.4589e+06   6.86e-29
  3.6008e+06   6.26e-29
  3.7487e+06   5.70e-29
  3.9026e+06   5.19e-29
  4.0628e+06   4.72e-29
  4.2296e+06   4.28e-29
  4.4032e+06   3.87e-29
  4.5840e+06   3.50e-29
  4.7722e+06   3.15e-29
  4.9681e+06   2.84e-29
  5.1720e+06   2.55e-29
  5.3844e+06   2.28e-29
  5.6054e+06   2.04e-29
  5.8355e+06   1.81e-29
  6.0751e+06   1.61e-29
  6.3245e+06   1.43e-29
  6.5841e+06   1.26e-29
  6.8544e+06   1.11e-29
  7.1358e+06   9.70e-30
  7.4288e+06   8.46e-30
  7.7338e+06   7.34e-30
  8.0513e+06   6.35e-30
  8.3818e+06   5.45e-30
  8.7259e+06   4.66e-30
  9.0841e+06   3.96e-30
  9.4571e+06   3.33e-30
  9.8453e+06   2.79e-30
  1.0249e+07   2.32e-30
  1.0670e+07   1.91e-30
  1.1108e+07   1.56e-30
  1.1564e+07   1.26e-30
  1.2039e+07   1.00e-30
  1.2533e+07   7.90e-31
  1.3048e+07   6.12e-31
  1.3584e+07   4.66e-31
  1.4141e+07   3.51e-31
  1.4722e+07   2.58e-31
  1.5326e+07   1.85e-31
  1.5955e+07   1.30e-31
  1.6610e+07   8.83e-32
  1.7292e+07   5.81e-32
  1.8002e+07   3.69e-32
  1.8741e+07   2.24e-32
  1.9511e+07   1.29e-32
  2.0312e+07   7.09e-33
  2.1145e+07   3.61e-33
  2.2013e+07   1.72e-33
  2.2917e+07   7.46e-34
  2.3858e+07   2.89e-34
  2.4837e+07   1.00e-34
  2.5857e+07   2.99e-35
  2.6919e+07   7.43e-36
  2.8024e+07   1.52e-36
  2.9174e+07   2.39e-37
  3.0372e+07   2.75e-38
  3.1619e+07   2.21e-39
  3.2917e+07   1.11e-40
  3.4268e+07   3.12e-42
  3.5675e+07   4.38e-44
  3.7140e+07   2.49e-46
  3.8664e+07   4.54e-49
  4.0252e+07   1.98e-52
  4.1904e+07   1.33e-56
  4.3624e+07   7.99e-62
  4.5415e+07   2.04e-68
  4.7280e+07   6.32e-72
  4.9221e+07   5.30e-72
  5.1241e+07   4.45e-72
  5.3345e+07   3.65e-72
  5.5535e+07   3.07e-72
  5.7815e+07   2.56e-72
  6.0188e+07   2.09e-72
  6.2659e+07   1.75e-72
  6.5232e+07   1.44e-72
  6.7910e+07   1.16e-72
  7.0698e+07   9.61e-73
  7.3600e+07   7.80e-73
  7.6621e+07   6.19e-73
  7.9767e+07   4.94e-73
  8.3042e+07   3.78e-73
  8.6451e+07   2.78e-73
  9.0000e+07   2.02e-73
