#  E [MeV]   Flux [# cm^{-2} s^{-1}  MeV^{-1}]
  3.0000e+04   2.04e-21
  3.0517e+04   1.98e-21
  3.1043e+04   1.92e-21
  3.1578e+04   1.85e-21
  3.2123e+04   1.80e-21
  3.2676e+04   1.74e-21
  3.3240e+04   1.68e-21
  3.3813e+04   1.63e-21
  3.4396e+04   1.57e-21
  3.4989e+04   1.52e-21
  3.5592e+04   1.47e-21
  3.6205e+04   1.42e-21
  3.6829e+04   1.38e-21
  3.7464e+04   1.33e-21
  3.8110e+04   1.29e-21
  3.8767e+04   1.24e-21
  3.9435e+04   1.20e-21
  4.0115e+04   1.16e-21
  4.0807e+04   1.12e-21
  4.1510e+04   1.08e-21
  4.2226e+04   1.04e-21
  4.2953e+04   1.01e-21
  4.3694e+04   9.71e-22
  4.4447e+04   9.37e-22
  4.5213e+04   9.03e-22
  4.5993e+04   8.71e-22
  4.6786e+04   8.40e-22
  4.7592e+04   8.09e-22
  4.8412e+04   7.79e-22
  4.9247e+04   7.50e-22
  5.0096e+04   7.22e-22
  5.0960e+04   6.96e-22
  5.1838e+04   6.70e-22
  5.2732e+04   6.44e-22
  5.3641e+04   6.20e-22
  5.4565e+04   5.96e-22
  5.5506e+04   5.73e-22
  5.6463e+04   5.51e-22
  5.7436e+04   5.29e-22
  5.8426e+04   5.09e-22
  5.9433e+04   4.89e-22
  6.0458e+04   4.69e-22
  6.1500e+04   4.50e-22
  6.2560e+04   4.32e-22
  6.3639e+04   4.15e-22
  6.4736e+04   3.98e-22
  6.5852e+04   3.82e-22
  6.6987e+04   3.66e-22
  6.8142e+04   3.51e-22
  6.9316e+04   3.36e-22
  7.0511e+04   3.21e-22
  7.1727e+04   3.08e-22
  7.2963e+04   2.95e-22
  7.4221e+04   2.82e-22
  7.5500e+04   2.70e-22
  7.6802e+04   2.58e-22
  7.8126e+04   2.47e-22
  7.9472e+04   2.36e-22
  8.0842e+04   2.25e-22
  8.2236e+04   2.16e-22
  8.3654e+04   2.06e-22
  8.5096e+04   1.96e-22
  8.6563e+04   1.87e-22
  8.8055e+04   1.78e-22
  8.9573e+04   1.70e-22
  9.1117e+04   1.62e-22
  9.2687e+04   1.55e-22
  9.4285e+04   1.47e-22
  9.5911e+04   1.40e-22
  9.7564e+04   1.33e-22
  9.9246e+04   1.26e-22
  1.0096e+05   1.20e-22
  1.0270e+05   1.15e-22
  1.0447e+05   1.09e-22
  1.0627e+05   1.03e-22
  1.0810e+05   9.81e-23
  1.0996e+05   9.29e-23
  1.1186e+05   8.81e-23
  1.1379e+05   8.37e-23
  1.1575e+05   7.95e-23
  1.1774e+05   7.54e-23
  1.1977e+05   7.13e-23
  1.2184e+05   6.75e-23
  1.2394e+05   6.37e-23
  1.2608e+05   6.03e-23
  1.2825e+05   5.72e-23
  1.3046e+05   5.41e-23
  1.3271e+05   5.12e-23
  1.3500e+05   4.83e-23
  1.3732e+05   4.55e-23
  1.3969e+05   4.28e-23
  1.4210e+05   4.05e-23
  1.4455e+05   3.83e-23
  1.4704e+05   3.61e-23
  1.4957e+05   3.41e-23
  1.5215e+05   3.20e-23
  1.5478e+05   3.01e-23
  1.5744e+05   2.82e-23
  1.6016e+05   2.67e-23
  1.6292e+05   2.52e-23
  1.6573e+05   2.37e-23
  1.6858e+05   2.22e-23
  1.7149e+05   2.09e-23
  1.7445e+05   1.95e-23
  1.7745e+05   1.83e-23
  1.8051e+05   1.72e-23
  1.8362e+05   1.62e-23
  1.8679e+05   1.52e-23
  1.9001e+05   1.42e-23
  1.9328e+05   1.32e-23
  1.9662e+05   1.23e-23
  2.0001e+05   1.15e-23
  2.0345e+05   1.08e-23
  2.0696e+05   1.02e-23
  2.1053e+05   9.48e-24
  2.1416e+05   8.84e-24
  2.1785e+05   8.21e-24
  2.2160e+05   7.60e-24
  2.2543e+05   7.13e-24
  2.2931e+05   6.68e-24
  2.3326e+05   6.23e-24
  2.3729e+05   5.80e-24
  2.4138e+05   5.38e-24
  2.4554e+05   4.98e-24
  2.4977e+05   4.61e-24
  2.5407e+05   4.31e-24
  2.5845e+05   4.02e-24
  2.6291e+05   3.74e-24
  2.6744e+05   3.47e-24
  2.7205e+05   3.21e-24
  2.7674e+05   2.95e-24
  2.8151e+05   2.73e-24
  2.8637e+05   2.55e-24
  2.9130e+05   2.37e-24
  2.9632e+05   2.19e-24
  3.0143e+05   2.03e-24
  3.0663e+05   1.86e-24
  3.1191e+05   1.71e-24
  3.1729e+05   1.58e-24
  3.2276e+05   1.47e-24
  3.2832e+05   1.36e-24
  3.3398e+05   1.26e-24
  3.3974e+05   1.16e-24
  3.4560e+05   1.06e-24
  3.5155e+05   9.65e-25
  3.5761e+05   8.97e-25
  3.6378e+05   8.32e-25
  3.7005e+05   7.68e-25
  3.7643e+05   7.06e-25
  3.8292e+05   6.46e-25
  3.8952e+05   5.88e-25
  3.9623e+05   5.38e-25
  4.0306e+05   4.99e-25
  4.1001e+05   4.62e-25
  4.1708e+05   4.25e-25
  4.2427e+05   3.90e-25
  4.3158e+05   3.56e-25
  4.3902e+05   3.23e-25
  4.4659e+05   2.97e-25
  4.5429e+05   2.75e-25
  4.6212e+05   2.54e-25
  4.7009e+05   2.34e-25
  4.7819e+05   2.14e-25
  4.8643e+05   1.95e-25
  4.9482e+05   1.77e-25
  5.0335e+05   1.64e-25
  5.1203e+05   1.52e-25
  5.2085e+05   1.40e-25
  5.2983e+05   1.29e-25
  5.3897e+05   1.18e-25
  5.4826e+05   1.08e-25
  5.5771e+05   9.78e-26
  5.6732e+05   9.13e-26
  5.7710e+05   8.51e-26
  5.8705e+05   7.91e-26
  5.9717e+05   7.32e-26
  6.0746e+05   6.76e-26
  6.1793e+05   6.21e-26
  6.2859e+05   5.75e-26
  6.3942e+05   5.41e-26
  6.5045e+05   5.08e-26
  6.6166e+05   4.76e-26
  6.7306e+05   4.45e-26
  6.8467e+05   4.15e-26
  6.9647e+05   3.86e-26
  7.0847e+05   3.63e-26
  7.2069e+05   3.44e-26
  7.3311e+05   3.25e-26
  7.4575e+05   3.07e-26
  7.5860e+05   2.89e-26
  7.7168e+05   2.72e-26
  7.8498e+05   2.56e-26
  7.9852e+05   2.42e-26
  8.1228e+05   2.29e-26
  8.2628e+05   2.17e-26
  8.4053e+05   2.05e-26
  8.5502e+05   1.93e-26
  8.6976e+05   1.82e-26
  8.8475e+05   1.72e-26
  9.0000e+05   1.65e-26
