#  E [MeV]   Flux [# cm^{-2} s^{-1}  MeV^{-1}]
  3.0000e+04   2.42e-24
  3.0962e+04   2.32e-24
  3.1955e+04   2.23e-24
  3.2979e+04   2.14e-24
  3.4037e+04   2.05e-24
  3.5128e+04   1.97e-24
  3.6254e+04   1.89e-24
  3.7417e+04   1.81e-24
  3.8616e+04   1.74e-24
  3.9855e+04   1.67e-24
  4.1132e+04   1.60e-24
  4.2451e+04   1.54e-24
  4.3812e+04   1.47e-24
  4.5217e+04   1.41e-24
  4.6667e+04   1.35e-24
  4.8163e+04   1.30e-24
  4.9707e+04   1.24e-24
  5.1301e+04   1.19e-24
  5.2946e+04   1.14e-24
  5.4644e+04   1.10e-24
  5.6396e+04   1.05e-24
  5.8204e+04   1.01e-24
  6.0070e+04   9.63e-25
  6.1996e+04   9.22e-25
  6.3984e+04   8.83e-25
  6.6035e+04   8.46e-25
  6.8153e+04   8.10e-25
  7.0338e+04   7.75e-25
  7.2593e+04   7.42e-25
  7.4921e+04   7.10e-25
  7.7323e+04   6.79e-25
  7.9802e+04   6.50e-25
  8.2361e+04   6.22e-25
  8.5002e+04   5.95e-25
  8.7727e+04   5.69e-25
  9.0540e+04   5.44e-25
  9.3443e+04   5.20e-25
  9.6439e+04   4.97e-25
  9.9531e+04   4.75e-25
  1.0272e+05   4.54e-25
  1.0602e+05   4.33e-25
  1.0942e+05   4.14e-25
  1.1292e+05   3.95e-25
  1.1654e+05   3.77e-25
  1.2028e+05   3.60e-25
  1.2414e+05   3.43e-25
  1.2812e+05   3.27e-25
  1.3223e+05   3.12e-25
  1.3646e+05   2.97e-25
  1.4084e+05   2.83e-25
  1.4536e+05   2.69e-25
  1.5002e+05   2.56e-25
  1.5483e+05   2.44e-25
  1.5979e+05   2.32e-25
  1.6491e+05   2.20e-25
  1.7020e+05   2.09e-25
  1.7566e+05   1.99e-25
  1.8129e+05   1.88e-25
  1.8710e+05   1.79e-25
  1.9310e+05   1.69e-25
  1.9929e+05   1.60e-25
  2.0568e+05   1.51e-25
  2.1228e+05   1.43e-25
  2.1909e+05   1.35e-25
  2.2611e+05   1.28e-25
  2.3336e+05   1.21e-25
  2.4084e+05   1.14e-25
  2.4856e+05   1.07e-25
  2.5653e+05   1.01e-25
  2.6476e+05   9.54e-26
  2.7325e+05   8.98e-26
  2.8201e+05   8.46e-26
  2.9105e+05   7.96e-26
  3.0038e+05   7.48e-26
  3.1002e+05   7.04e-26
  3.1996e+05   6.61e-26
  3.3021e+05   6.20e-26
  3.4080e+05   5.82e-26
  3.5173e+05   5.46e-26
  3.6301e+05   5.11e-26
  3.7465e+05   4.78e-26
  3.8666e+05   4.47e-26
  3.9905e+05   4.18e-26
  4.1185e+05   3.90e-26
  4.2506e+05   3.63e-26
  4.3868e+05   3.39e-26
  4.5275e+05   3.15e-26
  4.6727e+05   2.93e-26
  4.8225e+05   2.72e-26
  4.9771e+05   2.53e-26
  5.1367e+05   2.35e-26
  5.3014e+05   2.17e-26
  5.4714e+05   2.01e-26
  5.6468e+05   1.87e-26
  5.8278e+05   1.72e-26
  6.0147e+05   1.59e-26
  6.2075e+05   1.47e-26
  6.4066e+05   1.36e-26
  6.6120e+05   1.25e-26
  6.8240e+05   1.15e-26
  7.0428e+05   1.06e-26
  7.2686e+05   9.75e-27
  7.5017e+05   8.95e-27
  7.7422e+05   8.22e-27
  7.9904e+05   7.55e-27
  8.2466e+05   6.91e-27
  8.5110e+05   6.33e-27
  8.7839e+05   5.80e-27
  9.0656e+05   5.30e-27
  9.3562e+05   4.84e-27
  9.6562e+05   4.42e-27
  9.9658e+05   4.04e-27
  1.0285e+06   3.69e-27
  1.0615e+06   3.35e-27
  1.0956e+06   3.06e-27
  1.1307e+06   2.79e-27
  1.1669e+06   2.53e-27
  1.2043e+06   2.30e-27
  1.2430e+06   2.10e-27
  1.2828e+06   1.90e-27
  1.3239e+06   1.72e-27
  1.3664e+06   1.56e-27
  1.4102e+06   1.42e-27
  1.4554e+06   1.28e-27
  1.5021e+06   1.16e-27
  1.5502e+06   1.05e-27
  1.6000e+06   9.48e-28
  1.6513e+06   8.53e-28
  1.7042e+06   7.67e-28
  1.7588e+06   6.93e-28
  1.8152e+06   6.23e-28
  1.8734e+06   5.58e-28
  1.9335e+06   5.01e-28
  1.9955e+06   4.50e-28
  2.0595e+06   4.03e-28
  2.1255e+06   3.59e-28
  2.1937e+06   3.22e-28
  2.2640e+06   2.88e-28
  2.3366e+06   2.56e-28
  2.4115e+06   2.28e-28
  2.4888e+06   2.03e-28
  2.5686e+06   1.80e-28
  2.6510e+06   1.59e-28
  2.7360e+06   1.41e-28
  2.8237e+06   1.26e-28
  2.9142e+06   1.11e-28
  3.0077e+06   9.69e-29
  3.1041e+06   8.58e-29
  3.2036e+06   7.55e-29
  3.3064e+06   6.59e-29
  3.4124e+06   5.76e-29
  3.5218e+06   5.06e-29
  3.6347e+06   4.41e-29
  3.7512e+06   3.81e-29
  3.8715e+06   3.33e-29
  3.9957e+06   2.90e-29
  4.1238e+06   2.51e-29
  4.2560e+06   2.15e-29
  4.3924e+06   1.87e-29
  4.5333e+06   1.61e-29
  4.6786e+06   1.38e-29
  4.8286e+06   1.18e-29
  4.9835e+06   1.02e-29
  5.1433e+06   8.69e-30
  5.3082e+06   7.32e-30
  5.4784e+06   6.29e-30
  5.6540e+06   5.37e-30
  5.8353e+06   4.53e-30
  6.0224e+06   3.80e-30
  6.2155e+06   3.25e-30
  6.4148e+06   2.75e-30
  6.6205e+06   2.29e-30
  6.8327e+06   1.93e-30
  7.0518e+06   1.64e-30
  7.2779e+06   1.37e-30
  7.5113e+06   1.13e-30
  7.7521e+06   9.62e-31
  8.0007e+06   8.10e-31
  8.2572e+06   6.74e-31
  8.5219e+06   5.58e-31
  8.7952e+06   4.71e-31
  9.0772e+06   3.94e-31
  9.3682e+06   3.24e-31
  9.6686e+06   2.70e-31
  9.9786e+06   2.27e-31
  1.0299e+07   1.88e-31
  1.0629e+07   1.54e-31
  1.0970e+07   1.28e-31
  1.1321e+07   1.06e-31
  1.1684e+07   8.64e-32
  1.2059e+07   6.99e-32
  1.2446e+07   5.64e-32
  1.2845e+07   4.48e-32
  1.3256e+07   3.51e-32
  1.3681e+07   2.72e-32
  1.4120e+07   2.07e-32
  1.4573e+07   1.55e-32
  1.5040e+07   1.13e-32
  1.5522e+07   8.30e-33
  1.6020e+07   5.95e-33
