#  E [MeV]   Flux [# cm^{-2} s^{-1}  MeV^{-1}]
  3.0000e+04   1.76e-22
  3.0962e+04   1.69e-22
  3.1955e+04   1.62e-22
  3.2979e+04   1.56e-22
  3.4037e+04   1.50e-22
  3.5128e+04   1.44e-22
  3.6254e+04   1.38e-22
  3.7417e+04   1.32e-22
  3.8616e+04   1.27e-22
  3.9855e+04   1.22e-22
  4.1132e+04   1.17e-22
  4.2451e+04   1.12e-22
  4.3812e+04   1.07e-22
  4.5217e+04   1.03e-22
  4.6667e+04   9.86e-23
  4.8163e+04   9.45e-23
  4.9707e+04   9.06e-23
  5.1301e+04   8.68e-23
  5.2946e+04   8.31e-23
  5.4644e+04   7.96e-23
  5.6396e+04   7.62e-23
  5.8204e+04   7.30e-23
  6.0070e+04   6.98e-23
  6.1996e+04   6.68e-23
  6.3984e+04   6.40e-23
  6.6035e+04   6.12e-23
  6.8153e+04   5.85e-23
  7.0338e+04   5.60e-23
  7.2593e+04   5.35e-23
  7.4921e+04   5.11e-23
  7.7323e+04   4.89e-23
  7.9802e+04   4.67e-23
  8.2361e+04   4.46e-23
  8.5002e+04   4.26e-23
  8.7727e+04   4.07e-23
  9.0540e+04   3.88e-23
  9.3443e+04   3.71e-23
  9.6439e+04   3.54e-23
  9.9531e+04   3.38e-23
  1.0272e+05   3.22e-23
  1.0602e+05   3.07e-23
  1.0942e+05   2.92e-23
  1.1292e+05   2.78e-23
  1.1654e+05   2.65e-23
  1.2028e+05   2.53e-23
  1.2414e+05   2.40e-23
  1.2812e+05   2.29e-23
  1.3223e+05   2.18e-23
  1.3646e+05   2.07e-23
  1.4084e+05   1.97e-23
  1.4536e+05   1.87e-23
  1.5002e+05   1.78e-23
  1.5483e+05   1.69e-23
  1.5979e+05   1.60e-23
  1.6491e+05   1.52e-23
  1.7020e+05   1.44e-23
  1.7566e+05   1.37e-23
  1.8129e+05   1.30e-23
  1.8710e+05   1.23e-23
  1.9310e+05   1.17e-23
  1.9929e+05   1.10e-23
  2.0568e+05   1.05e-23
  2.1228e+05   9.91e-24
  2.1909e+05   9.38e-24
  2.2611e+05   8.87e-24
  2.3336e+05   8.39e-24
  2.4084e+05   7.94e-24
  2.4856e+05   7.50e-24
  2.5653e+05   7.09e-24
  2.6476e+05   6.70e-24
  2.7325e+05   6.32e-24
  2.8201e+05   5.96e-24
  2.9105e+05   5.63e-24
  3.0038e+05   5.31e-24
  3.1002e+05   5.00e-24
  3.1996e+05   4.71e-24
  3.3021e+05   4.44e-24
  3.4080e+05   4.18e-24
  3.5173e+05   3.93e-24
  3.6301e+05   3.70e-24
  3.7465e+05   3.48e-24
  3.8666e+05   3.27e-24
  3.9905e+05   3.07e-24
  4.1185e+05   2.88e-24
  4.2506e+05   2.70e-24
  4.3868e+05   2.53e-24
  4.5275e+05   2.37e-24
  4.6727e+05   2.22e-24
  4.8225e+05   2.08e-24
  4.9771e+05   1.94e-24
  5.1367e+05   1.81e-24
  5.3014e+05   1.70e-24
  5.4714e+05   1.58e-24
  5.6468e+05   1.48e-24
  5.8278e+05   1.38e-24
  6.0147e+05   1.28e-24
  6.2075e+05   1.19e-24
  6.4066e+05   1.11e-24
  6.6120e+05   1.03e-24
  6.8240e+05   9.62e-25
  7.0428e+05   8.92e-25
  7.2686e+05   8.29e-25
  7.5017e+05   7.70e-25
  7.7422e+05   7.13e-25
  7.9904e+05   6.60e-25
  8.2466e+05   6.11e-25
  8.5110e+05   5.65e-25
  8.7839e+05   5.22e-25
  9.0656e+05   4.82e-25
  9.3562e+05   4.45e-25
  9.6562e+05   4.10e-25
  9.9658e+05   3.77e-25
  1.0285e+06   3.48e-25
  1.0615e+06   3.20e-25
  1.0956e+06   2.94e-25
  1.1307e+06   2.70e-25
  1.1669e+06   2.48e-25
  1.2043e+06   2.27e-25
  1.2430e+06   2.08e-25
  1.2828e+06   1.91e-25
  1.3239e+06   1.75e-25
  1.3664e+06   1.59e-25
  1.4102e+06   1.45e-25
  1.4554e+06   1.33e-25
  1.5021e+06   1.21e-25
  1.5502e+06   1.10e-25
  1.6000e+06   1.00e-25
  1.6513e+06   9.14e-26
  1.7042e+06   8.30e-26
  1.7588e+06   7.51e-26
  1.8152e+06   6.82e-26
  1.8734e+06   6.19e-26
  1.9335e+06   5.59e-26
  1.9955e+06   5.04e-26
  2.0595e+06   4.57e-26
  2.1255e+06   4.13e-26
  2.1937e+06   3.72e-26
  2.2640e+06   3.35e-26
  2.3366e+06   3.02e-26
  2.4115e+06   2.72e-26
  2.4888e+06   2.43e-26
  2.5686e+06   2.19e-26
  2.6510e+06   1.97e-26
  2.7360e+06   1.76e-26
  2.8237e+06   1.57e-26
  2.9142e+06   1.42e-26
  3.0077e+06   1.27e-26
  3.1041e+06   1.13e-26
  3.2036e+06   1.01e-26
  3.3064e+06   9.03e-27
  3.4124e+06   8.05e-27
  3.5218e+06   7.11e-27
  3.6347e+06   6.36e-27
  3.7512e+06   5.68e-27
  3.8715e+06   5.04e-27
  3.9957e+06   4.45e-27
  4.1238e+06   3.98e-27
  4.2560e+06   3.54e-27
  4.3924e+06   3.13e-27
  4.5333e+06   2.78e-27
  4.6786e+06   2.48e-27
  4.8286e+06   2.20e-27
  4.9835e+06   1.94e-27
  5.1433e+06   1.74e-27
  5.3082e+06   1.55e-27
  5.4784e+06   1.37e-27
  5.6540e+06   1.21e-27
  5.8353e+06   1.09e-27
  6.0224e+06   9.73e-28
  6.2155e+06   8.62e-28
  6.4148e+06   7.72e-28
  6.6205e+06   6.96e-28
  6.8327e+06   6.24e-28
  7.0518e+06   5.57e-28
  7.2779e+06   5.06e-28
  7.5113e+06   4.58e-28
  7.7521e+06   4.13e-28
  8.0007e+06   3.73e-28
  8.2572e+06   3.41e-28
  8.5219e+06   3.10e-28
  8.7952e+06   2.81e-28
  9.0772e+06   2.57e-28
  9.3682e+06   2.35e-28
  9.6686e+06   2.15e-28
  9.9786e+06   1.96e-28
  1.0299e+07   1.80e-28
  1.0629e+07   1.66e-28
  1.0970e+07   1.52e-28
  1.1321e+07   1.40e-28
  1.1684e+07   1.29e-28
  1.2059e+07   1.18e-28
  1.2446e+07   1.08e-28
  1.2845e+07   9.93e-29
  1.3256e+07   9.08e-29
  1.3681e+07   8.28e-29
  1.4120e+07   7.52e-29
  1.4573e+07   6.80e-29
  1.5040e+07   6.12e-29
  1.5522e+07   5.48e-29
  1.6020e+07   4.94e-29
