#  E [GeV]   # per interaction  [GeV^{-1}]
  3.0000e+01   2.55e-02
  3.1141e+01   2.45e-02
  3.2326e+01   2.36e-02
  3.3556e+01   2.26e-02
  3.4832e+01   2.18e-02
  3.6157e+01   2.09e-02
  3.7533e+01   2.01e-02
  3.8961e+01   1.93e-02
  4.0443e+01   1.85e-02
  4.1982e+01   1.78e-02
  4.3579e+01   1.71e-02
  4.5237e+01   1.64e-02
  4.6958e+01   1.57e-02
  4.8744e+01   1.51e-02
  5.0598e+01   1.44e-02
  5.2523e+01   1.38e-02
  5.4521e+01   1.32e-02
  5.6596e+01   1.27e-02
  5.8749e+01   1.22e-02
  6.0984e+01   1.16e-02
  6.3304e+01   1.11e-02
  6.5712e+01   1.07e-02
  6.8212e+01   1.02e-02
  7.0807e+01   9.75e-03
  7.3500e+01   9.32e-03
  7.6297e+01   8.90e-03
  7.9199e+01   8.51e-03
  8.2212e+01   8.12e-03
  8.5340e+01   7.75e-03
  8.8586e+01   7.40e-03
  9.1956e+01   7.06e-03
  9.5455e+01   6.73e-03
  9.9086e+01   6.42e-03
  1.0286e+02   6.12e-03
  1.0677e+02   5.83e-03
  1.1083e+02   5.55e-03
  1.1505e+02   5.28e-03
  1.1942e+02   5.02e-03
  1.2397e+02   4.78e-03
  1.2868e+02   4.54e-03
  1.3358e+02   4.31e-03
  1.3866e+02   4.10e-03
  1.4394e+02   3.89e-03
  1.4941e+02   3.69e-03
  1.5509e+02   3.50e-03
  1.6100e+02   3.31e-03
  1.6712e+02   3.14e-03
  1.7348e+02   2.97e-03
  1.8008e+02   2.81e-03
  1.8693e+02   2.66e-03
  1.9404e+02   2.51e-03
  2.0142e+02   2.37e-03
  2.0908e+02   2.23e-03
  2.1704e+02   2.11e-03
  2.2529e+02   1.98e-03
  2.3387e+02   1.87e-03
  2.4276e+02   1.75e-03
  2.5200e+02   1.65e-03
  2.6158e+02   1.55e-03
  2.7154e+02   1.45e-03
  2.8187e+02   1.36e-03
  2.9259e+02   1.27e-03
  3.0372e+02   1.19e-03
  3.1527e+02   1.11e-03
  3.2727e+02   1.03e-03
  3.3972e+02   9.64e-04
  3.5264e+02   8.98e-04
  3.6606e+02   8.35e-04
  3.7998e+02   7.75e-04
  3.9444e+02   7.20e-04
  4.0945e+02   6.67e-04
  4.2502e+02   6.18e-04
  4.4119e+02   5.71e-04
  4.5798e+02   5.28e-04
  4.7540e+02   4.87e-04
  4.9348e+02   4.49e-04
  5.1226e+02   4.14e-04
  5.3175e+02   3.81e-04
  5.5198e+02   3.51e-04
  5.7297e+02   3.22e-04
  5.9477e+02   2.96e-04
  6.1740e+02   2.72e-04
  6.4089e+02   2.50e-04
  6.6527e+02   2.29e-04
  6.9058e+02   2.10e-04
  7.1685e+02   1.92e-04
  7.4412e+02   1.76e-04
  7.7243e+02   1.61e-04
  8.0181e+02   1.48e-04
  8.3232e+02   1.36e-04
  8.6398e+02   1.24e-04
  8.9685e+02   1.14e-04
  9.3097e+02   1.04e-04
  9.6638e+02   9.59e-05
  1.0031e+03   8.80e-05
  1.0413e+03   8.08e-05
  1.0809e+03   7.42e-05
  1.1220e+03   6.82e-05
  1.1647e+03   6.28e-05
  1.2090e+03   5.78e-05
  1.2550e+03   5.33e-05
  1.3028e+03   4.91e-05
  1.3523e+03   4.53e-05
  1.4038e+03   4.19e-05
  1.4572e+03   3.87e-05
  1.5126e+03   3.58e-05
  1.5702e+03   3.32e-05
  1.6299e+03   3.07e-05
  1.6919e+03   2.85e-05
  1.7563e+03   2.65e-05
  1.8231e+03   2.46e-05
  1.8925e+03   2.28e-05
  1.9645e+03   2.12e-05
  2.0392e+03   1.97e-05
  2.1168e+03   1.84e-05
  2.1973e+03   1.71e-05
  2.2809e+03   1.59e-05
  2.3677e+03   1.49e-05
  2.4577e+03   1.38e-05
  2.5512e+03   1.29e-05
  2.6483e+03   1.20e-05
  2.7490e+03   1.12e-05
  2.8536e+03   1.04e-05
  2.9622e+03   9.74e-06
  3.0749e+03   9.07e-06
  3.1918e+03   8.44e-06
  3.3133e+03   7.86e-06
  3.4393e+03   7.31e-06
  3.5702e+03   6.79e-06
  3.7060e+03   6.30e-06
  3.8470e+03   5.84e-06
  3.9933e+03   5.41e-06
  4.1452e+03   5.00e-06
  4.3029e+03   4.61e-06
  4.4666e+03   4.25e-06
  4.6366e+03   3.91e-06
  4.8129e+03   3.59e-06
  4.9960e+03   3.29e-06
  5.1861e+03   3.00e-06
  5.3834e+03   2.73e-06
  5.5882e+03   2.48e-06
  5.8008e+03   2.24e-06
  6.0215e+03   2.02e-06
  6.2506e+03   1.82e-06
  6.4883e+03   1.62e-06
  6.7352e+03   1.44e-06
  6.9914e+03   1.28e-06
  7.2574e+03   1.12e-06
  7.5335e+03   9.80e-07
  7.8201e+03   8.50e-07
  8.1176e+03   7.32e-07
  8.4264e+03   6.24e-07
  8.7470e+03   5.28e-07
  9.0797e+03   4.42e-07
  9.4251e+03   3.65e-07
  9.7837e+03   2.99e-07
  1.0156e+04   2.41e-07
  1.0542e+04   1.92e-07
  1.0943e+04   1.50e-07
  1.1360e+04   1.15e-07
  1.1792e+04   8.66e-08
  1.2240e+04   6.37e-08
  1.2706e+04   4.57e-08
  1.3189e+04   3.19e-08
  1.3691e+04   2.16e-08
  1.4212e+04   1.42e-08
  1.4753e+04   8.92e-09
  1.5314e+04   5.39e-09
  1.5897e+04   3.10e-09
  1.6501e+04   1.69e-09
  1.7129e+04   8.69e-10
  1.7781e+04   4.17e-10
  1.8457e+04   1.85e-10
  1.9159e+04   7.50e-11
  1.9888e+04   2.75e-11
  2.0645e+04   9.01e-12
  2.1430e+04   2.59e-12
  2.2245e+04   6.38e-13
  2.3092e+04   1.32e-13
  2.3970e+04   2.24e-14
  2.4882e+04   3.00e-15
  2.5829e+04   3.06e-16
  2.6811e+04   2.27e-17
  2.7831e+04   1.16e-18
  2.8890e+04   3.80e-20
  2.9989e+04   7.39e-22
  3.1130e+04   7.72e-24
  3.2314e+04   3.84e-26
  3.3544e+04   7.84e-29
  3.4820e+04   5.47e-32
  3.6144e+04   1.03e-35
  3.7519e+04   3.99e-40
  3.8947e+04   2.19e-45
  4.0428e+04   1.21e-46
  4.1966e+04   1.14e-46
  4.3563e+04   1.07e-46
  4.5220e+04   1.01e-46
  4.6941e+04   9.54e-47
  4.8726e+04   9.03e-47
  5.0580e+04   8.55e-47
