#  E [MeV]   Flux [# cm^{-2} s^{-1}  MeV^{-1}]
  3.0000e+04   6.23e-21
  3.0943e+04   6.00e-21
  3.1916e+04   5.78e-21
  3.2920e+04   5.57e-21
  3.3955e+04   5.36e-21
  3.5023e+04   5.16e-21
  3.6124e+04   4.96e-21
  3.7260e+04   4.77e-21
  3.8432e+04   4.59e-21
  3.9640e+04   4.42e-21
  4.0887e+04   4.25e-21
  4.2172e+04   4.08e-21
  4.3499e+04   3.93e-21
  4.4866e+04   3.77e-21
  4.6277e+04   3.63e-21
  4.7732e+04   3.48e-21
  4.9233e+04   3.35e-21
  5.0781e+04   3.21e-21
  5.2378e+04   3.09e-21
  5.4025e+04   2.96e-21
  5.5724e+04   2.84e-21
  5.7476e+04   2.73e-21
  5.9284e+04   2.62e-21
  6.1148e+04   2.51e-21
  6.3071e+04   2.41e-21
  6.5054e+04   2.31e-21
  6.7100e+04   2.21e-21
  6.9210e+04   2.12e-21
  7.1386e+04   2.03e-21
  7.3631e+04   1.95e-21
  7.5946e+04   1.87e-21
  7.8334e+04   1.79e-21
  8.0797e+04   1.71e-21
  8.3338e+04   1.64e-21
  8.5959e+04   1.57e-21
  8.8662e+04   1.50e-21
  9.1450e+04   1.44e-21
  9.4325e+04   1.38e-21
  9.7291e+04   1.32e-21
  1.0035e+05   1.26e-21
  1.0351e+05   1.21e-21
  1.0676e+05   1.15e-21
  1.1012e+05   1.10e-21
  1.1358e+05   1.05e-21
  1.1715e+05   1.01e-21
  1.2084e+05   9.63e-22
  1.2464e+05   9.20e-22
  1.2856e+05   8.79e-22
  1.3260e+05   8.40e-22
  1.3677e+05   8.02e-22
  1.4107e+05   7.66e-22
  1.4550e+05   7.32e-22
  1.5008e+05   6.98e-22
  1.5480e+05   6.67e-22
  1.5967e+05   6.36e-22
  1.6469e+05   6.07e-22
  1.6987e+05   5.79e-22
  1.7521e+05   5.52e-22
  1.8072e+05   5.27e-22
  1.8640e+05   5.03e-22
  1.9226e+05   4.79e-22
  1.9831e+05   4.57e-22
  2.0454e+05   4.36e-22
  2.1097e+05   4.15e-22
  2.1761e+05   3.96e-22
  2.2445e+05   3.77e-22
  2.3151e+05   3.59e-22
  2.3879e+05   3.43e-22
  2.4630e+05   3.26e-22
  2.5404e+05   3.11e-22
  2.6203e+05   2.96e-22
  2.7027e+05   2.82e-22
  2.7877e+05   2.69e-22
  2.8753e+05   2.56e-22
  2.9657e+05   2.43e-22
  3.0590e+05   2.32e-22
  3.1552e+05   2.20e-22
  3.2544e+05   2.10e-22
  3.3567e+05   2.00e-22
  3.4623e+05   1.90e-22
  3.5712e+05   1.81e-22
  3.6835e+05   1.72e-22
  3.7993e+05   1.63e-22
  3.9188e+05   1.55e-22
  4.0420e+05   1.48e-22
  4.1691e+05   1.40e-22
  4.3002e+05   1.33e-22
  4.4354e+05   1.27e-22
  4.5749e+05   1.21e-22
  4.7187e+05   1.15e-22
  4.8671e+05   1.09e-22
  5.0202e+05   1.04e-22
  5.1780e+05   9.85e-23
  5.3409e+05   9.36e-23
  5.5088e+05   8.89e-23
  5.6820e+05   8.45e-23
  5.8607e+05   8.03e-23
  6.0450e+05   7.63e-23
  6.2351e+05   7.26e-23
  6.4311e+05   6.90e-23
  6.6334e+05   6.56e-23
  6.8419e+05   6.23e-23
  7.0571e+05   5.93e-23
  7.2790e+05   5.64e-23
  7.5079e+05   5.36e-23
  7.7440e+05   5.10e-23
  7.9875e+05   4.85e-23
  8.2387e+05   4.62e-23
  8.4977e+05   4.39e-23
  8.7649e+05   4.18e-23
  9.0405e+05   3.98e-23
  9.3248e+05   3.79e-23
  9.6180e+05   3.61e-23
  9.9205e+05   3.44e-23
  1.0232e+06   3.28e-23
  1.0554e+06   3.13e-23
  1.0886e+06   2.98e-23
  1.1228e+06   2.84e-23
  1.1581e+06   2.71e-23
  1.1946e+06   2.58e-23
  1.2321e+06   2.47e-23
  1.2709e+06   2.35e-23
  1.3108e+06   2.25e-23
  1.3521e+06   2.15e-23
  1.3946e+06   2.05e-23
  1.4384e+06   1.96e-23
  1.4837e+06   1.87e-23
  1.5303e+06   1.79e-23
  1.5784e+06   1.71e-23
  1.6281e+06   1.64e-23
  1.6793e+06   1.57e-23
  1.7321e+06   1.50e-23
  1.7865e+06   1.43e-23
  1.8427e+06   1.37e-23
  1.9006e+06   1.31e-23
  1.9604e+06   1.26e-23
  2.0221e+06   1.20e-23
  2.0856e+06   1.15e-23
  2.1512e+06   1.10e-23
  2.2189e+06   1.06e-23
  2.2886e+06   1.01e-23
  2.3606e+06   9.69e-24
  2.4348e+06   9.29e-24
  2.5114e+06   8.90e-24
  2.5904e+06   8.52e-24
  2.6718e+06   8.16e-24
  2.7558e+06   7.82e-24
  2.8425e+06   7.49e-24
  2.9319e+06   7.18e-24
  3.0241e+06   6.88e-24
  3.1192e+06   6.59e-24
  3.2173e+06   6.31e-24
  3.3184e+06   6.05e-24
  3.4228e+06   5.79e-24
  3.5304e+06   5.54e-24
  3.6414e+06   5.30e-24
  3.7559e+06   5.07e-24
  3.8740e+06   4.85e-24
  3.9958e+06   4.64e-24
  4.1215e+06   4.43e-24
  4.2511e+06   4.23e-24
  4.3848e+06   4.04e-24
  4.5227e+06   3.85e-24
  4.6649e+06   3.68e-24
  4.8116e+06   3.51e-24
  4.9629e+06   3.34e-24
  5.1189e+06   3.18e-24
  5.2799e+06   3.03e-24
  5.4459e+06   2.88e-24
  5.6171e+06   2.74e-24
  5.7938e+06   2.60e-24
  5.9760e+06   2.47e-24
  6.1639e+06   2.34e-24
  6.3577e+06   2.22e-24
  6.5576e+06   2.10e-24
  6.7638e+06   1.99e-24
  6.9765e+06   1.88e-24
  7.1959e+06   1.77e-24
  7.4222e+06   1.67e-24
  7.6556e+06   1.57e-24
  7.8963e+06   1.48e-24
  8.1446e+06   1.39e-24
  8.4007e+06   1.31e-24
  8.6649e+06   1.22e-24
  8.9373e+06   1.14e-24
  9.2184e+06   1.07e-24
  9.5082e+06   9.97e-25
  9.8072e+06   9.28e-25
  1.0116e+07   8.62e-25
  1.0434e+07   7.98e-25
  1.0762e+07   7.38e-25
  1.1100e+07   6.81e-25
  1.1449e+07   6.26e-25
  1.1809e+07   5.74e-25
  1.2181e+07   5.24e-25
  1.2564e+07   4.77e-25
  1.2959e+07   4.32e-25
  1.3366e+07   3.90e-25
  1.3786e+07   3.50e-25
  1.4220e+07   3.15e-25
