#  E [MeV]   Flux [# cm^{-2} s^{-1}  MeV^{-1}]
  3.0000e+04   8.76e-19
  3.0589e+04   8.66e-19
  3.1190e+04   8.56e-19
  3.1803e+04   8.46e-19
  3.2428e+04   8.36e-19
  3.3065e+04   8.27e-19
  3.3714e+04   8.18e-19
  3.4376e+04   8.09e-19
  3.5052e+04   7.99e-19
  3.5740e+04   7.90e-19
  3.6442e+04   7.81e-19
  3.7158e+04   7.73e-19
  3.7888e+04   7.64e-19
  3.8632e+04   7.55e-19
  3.9391e+04   7.47e-19
  4.0165e+04   7.38e-19
  4.0954e+04   7.30e-19
  4.1758e+04   7.22e-19
  4.2579e+04   7.14e-19
  4.3415e+04   7.06e-19
  4.4268e+04   6.97e-19
  4.5138e+04   6.90e-19
  4.6024e+04   6.82e-19
  4.6928e+04   6.74e-19
  4.7850e+04   6.67e-19
  4.8790e+04   6.59e-19
  4.9749e+04   6.52e-19
  5.0726e+04   6.44e-19
  5.1722e+04   6.37e-19
  5.2738e+04   6.30e-19
  5.3774e+04   6.22e-19
  5.4831e+04   6.15e-19
  5.5908e+04   6.08e-19
  5.7006e+04   6.01e-19
  5.8126e+04   5.94e-19
  5.9268e+04   5.87e-19
  6.0432e+04   5.81e-19
  6.1619e+04   5.74e-19
  6.2829e+04   5.67e-19
  6.4064e+04   5.60e-19
  6.5322e+04   5.54e-19
  6.6605e+04   5.47e-19
  6.7913e+04   5.41e-19
  6.9248e+04   5.34e-19
  7.0608e+04   5.28e-19
  7.1995e+04   5.21e-19
  7.3409e+04   5.15e-19
  7.4851e+04   5.08e-19
  7.6321e+04   5.02e-19
  7.7821e+04   4.95e-19
  7.9349e+04   4.89e-19
  8.0908e+04   4.83e-19
  8.2497e+04   4.76e-19
  8.4118e+04   4.70e-19
  8.5770e+04   4.64e-19
  8.7455e+04   4.58e-19
  8.9173e+04   4.52e-19
  9.0925e+04   4.46e-19
  9.2711e+04   4.40e-19
  9.4532e+04   4.34e-19
  9.6389e+04   4.28e-19
  9.8283e+04   4.22e-19
  1.0021e+05   4.16e-19
  1.0218e+05   4.10e-19
  1.0419e+05   4.04e-19
  1.0624e+05   3.99e-19
  1.0832e+05   3.93e-19
  1.1045e+05   3.87e-19
  1.1262e+05   3.82e-19
  1.1483e+05   3.76e-19
  1.1709e+05   3.70e-19
  1.1939e+05   3.65e-19
  1.2173e+05   3.59e-19
  1.2412e+05   3.54e-19
  1.2656e+05   3.48e-19
  1.2905e+05   3.43e-19
  1.3158e+05   3.37e-19
  1.3417e+05   3.32e-19
  1.3680e+05   3.27e-19
  1.3949e+05   3.21e-19
  1.4223e+05   3.16e-19
  1.4503e+05   3.11e-19
  1.4787e+05   3.05e-19
  1.5078e+05   3.00e-19
  1.5374e+05   2.95e-19
  1.5676e+05   2.90e-19
  1.5984e+05   2.85e-19
  1.6298e+05   2.80e-19
  1.6618e+05   2.75e-19
  1.6945e+05   2.69e-19
  1.7278e+05   2.65e-19
  1.7617e+05   2.60e-19
  1.7963e+05   2.55e-19
  1.8316e+05   2.50e-19
  1.8676e+05   2.45e-19
  1.9042e+05   2.40e-19
  1.9417e+05   2.35e-19
  1.9798e+05   2.31e-19
  2.0187e+05   2.26e-19
  2.0583e+05   2.21e-19
  2.0988e+05   2.17e-19
  2.1400e+05   2.12e-19
  2.1820e+05   2.08e-19
  2.2249e+05   2.03e-19
  2.2686e+05   1.99e-19
  2.3132e+05   1.94e-19
  2.3586e+05   1.90e-19
  2.4049e+05   1.85e-19
  2.4522e+05   1.81e-19
  2.5004e+05   1.77e-19
  2.5495e+05   1.73e-19
  2.5996e+05   1.69e-19
  2.6506e+05   1.65e-19
  2.7027e+05   1.60e-19
  2.7558e+05   1.57e-19
  2.8099e+05   1.53e-19
  2.8651e+05   1.49e-19
  2.9214e+05   1.45e-19
  2.9788e+05   1.41e-19
  3.0373e+05   1.37e-19
  3.0970e+05   1.33e-19
  3.1578e+05   1.29e-19
  3.2198e+05   1.26e-19
  3.2831e+05   1.22e-19
  3.3476e+05   1.18e-19
  3.4133e+05   1.15e-19
  3.4804e+05   1.12e-19
  3.5487e+05   1.08e-19
  3.6185e+05   1.05e-19
  3.6895e+05   1.01e-19
  3.7620e+05   9.81e-20
  3.8359e+05   9.49e-20
  3.9113e+05   9.19e-20
  3.9881e+05   8.88e-20
  4.0664e+05   8.58e-20
  4.1463e+05   8.28e-20
  4.2278e+05   7.99e-20
  4.3108e+05   7.70e-20
  4.3955e+05   7.43e-20
  4.4818e+05   7.16e-20
  4.5699e+05   6.89e-20
  4.6596e+05   6.63e-20
  4.7512e+05   6.38e-20
  4.8445e+05   6.13e-20
  4.9397e+05   5.89e-20
  5.0367e+05   5.66e-20
  5.1356e+05   5.43e-20
  5.2365e+05   5.20e-20
  5.3394e+05   4.98e-20
  5.4443e+05   4.77e-20
  5.5512e+05   4.56e-20
  5.6603e+05   4.36e-20
  5.7715e+05   4.16e-20
  5.8848e+05   3.97e-20
  6.0004e+05   3.78e-20
  6.1183e+05   3.59e-20
  6.2385e+05   3.42e-20
  6.3610e+05   3.25e-20
  6.4860e+05   3.08e-20
  6.6134e+05   2.92e-20
  6.7433e+05   2.77e-20
  6.8758e+05   2.62e-20
  7.0108e+05   2.47e-20
  7.1486e+05   2.33e-20
  7.2890e+05   2.20e-20
  7.4322e+05   2.08e-20
  7.5782e+05   1.95e-20
  7.7270e+05   1.83e-20
  7.8788e+05   1.72e-20
  8.0336e+05   1.61e-20
  8.1914e+05   1.51e-20
  8.3523e+05   1.42e-20
  8.5164e+05   1.33e-20
  8.6837e+05   1.24e-20
  8.8542e+05   1.15e-20
  9.0282e+05   1.07e-20
  9.2055e+05   9.97e-21
  9.3863e+05   9.27e-21
  9.5707e+05   8.59e-21
  9.7587e+05   7.93e-21
  9.9504e+05   7.30e-21
  1.0146e+06   6.73e-21
  1.0345e+06   6.23e-21
  1.0548e+06   5.75e-21
  1.0756e+06   5.29e-21
  1.0967e+06   4.84e-21
  1.1182e+06   4.41e-21
  1.1402e+06   4.04e-21
  1.1626e+06   3.72e-21
  1.1854e+06   3.42e-21
  1.2087e+06   3.13e-21
  1.2325e+06   2.84e-21
  1.2567e+06   2.57e-21
  1.2814e+06   2.36e-21
  1.3065e+06   2.18e-21
  1.3322e+06   2.01e-21
  1.3584e+06   1.85e-21
  1.3851e+06   1.69e-21
  1.4123e+06   1.54e-21
  1.4400e+06   1.45e-21
