#  E [GeV]   # per interaction  [GeV^{-1}]
  3.0000e+01   1.83e-01
  3.0589e+01   1.78e-01
  3.1190e+01   1.72e-01
  3.1803e+01   1.67e-01
  3.2428e+01   1.61e-01
  3.3065e+01   1.56e-01
  3.3714e+01   1.51e-01
  3.4376e+01   1.46e-01
  3.5052e+01   1.41e-01
  3.5740e+01   1.37e-01
  3.6442e+01   1.32e-01
  3.7158e+01   1.28e-01
  3.7888e+01   1.24e-01
  3.8632e+01   1.20e-01
  3.9391e+01   1.16e-01
  4.0165e+01   1.12e-01
  4.0954e+01   1.08e-01
  4.1758e+01   1.04e-01
  4.2579e+01   1.01e-01
  4.3415e+01   9.73e-02
  4.4268e+01   9.39e-02
  4.5138e+01   9.06e-02
  4.6024e+01   8.75e-02
  4.6928e+01   8.45e-02
  4.7850e+01   8.15e-02
  4.8790e+01   7.86e-02
  4.9749e+01   7.58e-02
  5.0726e+01   7.31e-02
  5.1722e+01   7.05e-02
  5.2738e+01   6.80e-02
  5.3774e+01   6.56e-02
  5.4831e+01   6.32e-02
  5.5908e+01   6.09e-02
  5.7006e+01   5.87e-02
  5.8126e+01   5.65e-02
  5.9268e+01   5.44e-02
  6.0432e+01   5.24e-02
  6.1619e+01   5.05e-02
  6.2829e+01   4.86e-02
  6.4064e+01   4.67e-02
  6.5322e+01   4.50e-02
  6.6605e+01   4.33e-02
  6.7913e+01   4.17e-02
  6.9248e+01   4.01e-02
  7.0608e+01   3.85e-02
  7.1995e+01   3.70e-02
  7.3409e+01   3.56e-02
  7.4851e+01   3.42e-02
  7.6321e+01   3.28e-02
  7.7821e+01   3.15e-02
  7.9349e+01   3.03e-02
  8.0908e+01   2.91e-02
  8.2497e+01   2.79e-02
  8.4118e+01   2.68e-02
  8.5770e+01   2.57e-02
  8.7455e+01   2.46e-02
  8.9173e+01   2.36e-02
  9.0925e+01   2.27e-02
  9.2711e+01   2.17e-02
  9.4532e+01   2.08e-02
  9.6389e+01   2.00e-02
  9.8283e+01   1.91e-02
  1.0021e+02   1.83e-02
  1.0218e+02   1.75e-02
  1.0419e+02   1.68e-02
  1.0624e+02   1.61e-02
  1.0832e+02   1.54e-02
  1.1045e+02   1.47e-02
  1.1262e+02   1.40e-02
  1.1483e+02   1.34e-02
  1.1709e+02   1.29e-02
  1.1939e+02   1.23e-02
  1.2173e+02   1.17e-02
  1.2412e+02   1.12e-02
  1.2656e+02   1.07e-02
  1.2905e+02   1.02e-02
  1.3158e+02   9.77e-03
  1.3417e+02   9.33e-03
  1.3680e+02   8.90e-03
  1.3949e+02   8.48e-03
  1.4223e+02   8.08e-03
  1.4503e+02   7.71e-03
  1.4787e+02   7.35e-03
  1.5078e+02   7.00e-03
  1.5374e+02   6.66e-03
  1.5676e+02   6.34e-03
  1.5984e+02   6.02e-03
  1.6298e+02   5.74e-03
  1.6618e+02   5.46e-03
  1.6945e+02   5.20e-03
  1.7278e+02   4.94e-03
  1.7617e+02   4.69e-03
  1.7963e+02   4.45e-03
  1.8316e+02   4.23e-03
  1.8676e+02   4.02e-03
  1.9042e+02   3.82e-03
  1.9417e+02   3.62e-03
  1.9798e+02   3.43e-03
  2.0187e+02   3.25e-03
  2.0583e+02   3.08e-03
  2.0988e+02   2.92e-03
  2.1400e+02   2.77e-03
  2.1820e+02   2.62e-03
  2.2249e+02   2.48e-03
  2.2686e+02   2.34e-03
  2.3132e+02   2.22e-03
  2.3586e+02   2.10e-03
  2.4049e+02   1.99e-03
  2.4522e+02   1.88e-03
  2.5004e+02   1.77e-03
  2.5495e+02   1.67e-03
  2.5996e+02   1.58e-03
  2.6506e+02   1.49e-03
  2.7027e+02   1.41e-03
  2.7558e+02   1.32e-03
  2.8099e+02   1.24e-03
  2.8651e+02   1.17e-03
  2.9214e+02   1.10e-03
  2.9788e+02   1.04e-03
  3.0373e+02   9.78e-04
  3.0970e+02   9.17e-04
  3.1578e+02   8.59e-04
  3.2198e+02   8.07e-04
  3.2831e+02   7.59e-04
  3.3476e+02   7.13e-04
  3.4133e+02   6.68e-04
  3.4804e+02   6.25e-04
  3.5487e+02   5.83e-04
  3.6185e+02   5.46e-04
  3.6895e+02   5.13e-04
  3.7620e+02   4.80e-04
  3.8359e+02   4.48e-04
  3.9113e+02   4.18e-04
  3.9881e+02   3.88e-04
  4.0664e+02   3.63e-04
  4.1463e+02   3.40e-04
  4.2278e+02   3.17e-04
  4.3108e+02   2.95e-04
  4.3955e+02   2.74e-04
  4.4818e+02   2.53e-04
  4.5699e+02   2.36e-04
  4.6596e+02   2.20e-04
  4.7512e+02   2.05e-04
  4.8445e+02   1.90e-04
  4.9397e+02   1.75e-04
  5.0367e+02   1.62e-04
  5.1356e+02   1.50e-04
  5.2365e+02   1.40e-04
  5.3394e+02   1.29e-04
  5.4443e+02   1.20e-04
  5.5512e+02   1.10e-04
  5.6603e+02   1.01e-04
  5.7715e+02   9.35e-05
  5.8848e+02   8.64e-05
  6.0004e+02   7.96e-05
  6.1183e+02   7.31e-05
  6.2385e+02   6.67e-05
  6.3610e+02   6.08e-05
  6.4860e+02   5.62e-05
  6.6134e+02   5.18e-05
  6.7433e+02   4.75e-05
  6.8758e+02   4.33e-05
  7.0108e+02   3.93e-05
  7.1486e+02   3.57e-05
  7.2890e+02   3.29e-05
  7.4322e+02   3.01e-05
  7.5782e+02   2.75e-05
  7.7270e+02   2.49e-05
  7.8788e+02   2.25e-05
  8.0336e+02   2.03e-05
  8.1914e+02   1.86e-05
  8.3523e+02   1.70e-05
  8.5164e+02   1.55e-05
  8.6837e+02   1.40e-05
  8.8542e+02   1.25e-05
  9.0282e+02   1.13e-05
  9.2055e+02   1.03e-05
  9.3863e+02   9.36e-06
  9.5707e+02   8.45e-06
  9.7587e+02   7.58e-06
  9.9504e+02   6.74e-06
  1.0146e+03   6.05e-06
  1.0345e+03   5.50e-06
  1.0548e+03   4.97e-06
  1.0756e+03   4.47e-06
  1.0967e+03   3.98e-06
  1.1182e+03   3.51e-06
  1.1402e+03   3.13e-06
  1.1626e+03   2.83e-06
  1.1854e+03   2.53e-06
  1.2087e+03   2.25e-06
  1.2325e+03   1.98e-06
  1.2567e+03   1.72e-06
  1.2814e+03   1.52e-06
  1.3065e+03   1.35e-06
  1.3322e+03   1.19e-06
  1.3584e+03   1.04e-06
  1.3851e+03   8.91e-07
  1.4123e+03   7.49e-07
  1.4400e+03   6.61e-07
