#  E [MeV]   Flux [# cm^{-2} s^{-1}  MeV^{-1}]
  3.0000e+04   1.56e-19
  3.0854e+04   1.51e-19
  3.1733e+04   1.46e-19
  3.2636e+04   1.41e-19
  3.3566e+04   1.36e-19
  3.4521e+04   1.31e-19
  3.5504e+04   1.27e-19
  3.6515e+04   1.23e-19
  3.7555e+04   1.18e-19
  3.8625e+04   1.14e-19
  3.9724e+04   1.10e-19
  4.0855e+04   1.07e-19
  4.2019e+04   1.03e-19
  4.3215e+04   9.93e-20
  4.4446e+04   9.57e-20
  4.5711e+04   9.23e-20
  4.7013e+04   8.90e-20
  4.8352e+04   8.58e-20
  4.9728e+04   8.27e-20
  5.1144e+04   7.96e-20
  5.2601e+04   7.67e-20
  5.4099e+04   7.39e-20
  5.5639e+04   7.11e-20
  5.7223e+04   6.84e-20
  5.8853e+04   6.59e-20
  6.0528e+04   6.34e-20
  6.2252e+04   6.09e-20
  6.4025e+04   5.86e-20
  6.5848e+04   5.63e-20
  6.7723e+04   5.42e-20
  6.9651e+04   5.20e-20
  7.1634e+04   5.00e-20
  7.3674e+04   4.80e-20
  7.5772e+04   4.61e-20
  7.7929e+04   4.43e-20
  8.0148e+04   4.25e-20
  8.2431e+04   4.08e-20
  8.4778e+04   3.91e-20
  8.7192e+04   3.75e-20
  8.9674e+04   3.60e-20
  9.2228e+04   3.45e-20
  9.4854e+04   3.30e-20
  9.7555e+04   3.17e-20
  1.0033e+05   3.03e-20
  1.0319e+05   2.90e-20
  1.0613e+05   2.78e-20
  1.0915e+05   2.66e-20
  1.1226e+05   2.54e-20
  1.1545e+05   2.43e-20
  1.1874e+05   2.32e-20
  1.2212e+05   2.22e-20
  1.2560e+05   2.12e-20
  1.2918e+05   2.03e-20
  1.3286e+05   1.94e-20
  1.3664e+05   1.85e-20
  1.4053e+05   1.77e-20
  1.4453e+05   1.68e-20
  1.4865e+05   1.61e-20
  1.5288e+05   1.53e-20
  1.5723e+05   1.46e-20
  1.6171e+05   1.39e-20
  1.6631e+05   1.33e-20
  1.7105e+05   1.26e-20
  1.7592e+05   1.20e-20
  1.8093e+05   1.14e-20
  1.8608e+05   1.09e-20
  1.9138e+05   1.03e-20
  1.9683e+05   9.83e-21
  2.0243e+05   9.34e-21
  2.0820e+05   8.87e-21
  2.1413e+05   8.42e-21
  2.2022e+05   7.99e-21
  2.2649e+05   7.58e-21
  2.3294e+05   7.18e-21
  2.3958e+05   6.80e-21
  2.4640e+05   6.45e-21
  2.5341e+05   6.10e-21
  2.6063e+05   5.78e-21
  2.6805e+05   5.46e-21
  2.7568e+05   5.16e-21
  2.8353e+05   4.88e-21
  2.9161e+05   4.61e-21
  2.9991e+05   4.35e-21
  3.0845e+05   4.11e-21
  3.1723e+05   3.87e-21
  3.2627e+05   3.65e-21
  3.3556e+05   3.44e-21
  3.4511e+05   3.24e-21
  3.5494e+05   3.05e-21
  3.6504e+05   2.87e-21
  3.7544e+05   2.70e-21
  3.8613e+05   2.53e-21
  3.9712e+05   2.38e-21
  4.0843e+05   2.23e-21
  4.2006e+05   2.09e-21
  4.3202e+05   1.96e-21
  4.4432e+05   1.84e-21
  4.5698e+05   1.72e-21
  4.6999e+05   1.61e-21
  4.8337e+05   1.51e-21
  4.9713e+05   1.41e-21
  5.1129e+05   1.32e-21
  5.2585e+05   1.23e-21
  5.4082e+05   1.15e-21
  5.5622e+05   1.07e-21
  5.7206e+05   9.97e-22
  5.8835e+05   9.29e-22
  6.0510e+05   8.64e-22
  6.2233e+05   8.05e-22
  6.4005e+05   7.49e-22
  6.5828e+05   6.96e-22
  6.7702e+05   6.46e-22
  6.9630e+05   6.00e-22
  7.1613e+05   5.58e-22
  7.3652e+05   5.18e-22
  7.5749e+05   4.79e-22
  7.7906e+05   4.45e-22
  8.0124e+05   4.12e-22
  8.2406e+05   3.82e-22
  8.4752e+05   3.53e-22
  8.7165e+05   3.26e-22
  8.9647e+05   3.02e-22
  9.2200e+05   2.79e-22
  9.4825e+05   2.57e-22
  9.7526e+05   2.38e-22
  1.0030e+06   2.20e-22
  1.0316e+06   2.03e-22
  1.0610e+06   1.87e-22
  1.0912e+06   1.72e-22
  1.1222e+06   1.59e-22
  1.1542e+06   1.47e-22
  1.1871e+06   1.35e-22
  1.2209e+06   1.24e-22
  1.2556e+06   1.14e-22
  1.2914e+06   1.05e-22
  1.3281e+06   9.67e-23
  1.3660e+06   8.87e-23
  1.4049e+06   8.18e-23
  1.4449e+06   7.52e-23
  1.4860e+06   6.90e-23
  1.5283e+06   6.31e-23
  1.5718e+06   5.81e-23
  1.6166e+06   5.33e-23
  1.6626e+06   4.88e-23
  1.7100e+06   4.46e-23
  1.7587e+06   4.10e-23
  1.8087e+06   3.76e-23
  1.8602e+06   3.44e-23
  1.9132e+06   3.14e-23
  1.9677e+06   2.88e-23
  2.0237e+06   2.65e-23
  2.0813e+06   2.42e-23
  2.1406e+06   2.21e-23
  2.2016e+06   2.02e-23
  2.2642e+06   1.86e-23
  2.3287e+06   1.70e-23
  2.3950e+06   1.55e-23
  2.4632e+06   1.42e-23
  2.5334e+06   1.30e-23
  2.6055e+06   1.19e-23
  2.6797e+06   1.09e-23
  2.7560e+06   1.00e-23
  2.8345e+06   9.21e-24
  2.9152e+06   8.45e-24
  2.9982e+06   7.74e-24
  3.0836e+06   7.12e-24
  3.1714e+06   6.59e-24
  3.2617e+06   6.09e-24
  3.3545e+06   5.61e-24
  3.4501e+06   5.20e-24
  3.5483e+06   4.85e-24
  3.6493e+06   4.52e-24
  3.7532e+06   4.21e-24
  3.8601e+06   3.93e-24
  3.9700e+06   3.71e-24
  4.0831e+06   3.49e-24
  4.1993e+06   3.29e-24
  4.3189e+06   3.10e-24
  4.4419e+06   2.96e-24
  4.5684e+06   2.83e-24
  4.6985e+06   2.70e-24
  4.8322e+06   2.58e-24
  4.9698e+06   2.51e-24
  5.1114e+06   2.45e-24
  5.2569e+06   2.39e-24
  5.4066e+06   2.32e-24
  5.5605e+06   2.33e-24
  5.7189e+06   2.32e-24
  5.8817e+06   2.32e-24
  6.0492e+06   2.30e-24
  6.2214e+06   2.41e-24
  6.3986e+06   2.52e-24
  6.5808e+06   2.61e-24
  6.7682e+06   2.69e-24
  6.9609e+06   3.03e-24
  7.1591e+06   3.40e-24
  7.3630e+06   3.71e-24
  7.5726e+06   3.99e-24
  7.7882e+06   3.74e-24
  8.0100e+06   3.31e-24
