#  E [GeV]   # per interaction  [GeV^{-1}]
  3.0000e+01   2.58e-02
  3.1141e+01   2.48e-02
  3.2326e+01   2.38e-02
  3.3556e+01   2.29e-02
  3.4832e+01   2.20e-02
  3.6157e+01   2.12e-02
  3.7533e+01   2.03e-02
  3.8961e+01   1.95e-02
  4.0443e+01   1.88e-02
  4.1982e+01   1.80e-02
  4.3579e+01   1.73e-02
  4.5237e+01   1.66e-02
  4.6958e+01   1.59e-02
  4.8744e+01   1.53e-02
  5.0598e+01   1.46e-02
  5.2523e+01   1.40e-02
  5.4521e+01   1.34e-02
  5.6596e+01   1.29e-02
  5.8749e+01   1.23e-02
  6.0984e+01   1.18e-02
  6.3304e+01   1.13e-02
  6.5712e+01   1.08e-02
  6.8212e+01   1.03e-02
  7.0807e+01   9.89e-03
  7.3500e+01   9.46e-03
  7.6297e+01   9.04e-03
  7.9199e+01   8.64e-03
  8.2212e+01   8.25e-03
  8.5340e+01   7.88e-03
  8.8586e+01   7.52e-03
  9.1956e+01   7.18e-03
  9.5455e+01   6.85e-03
  9.9086e+01   6.53e-03
  1.0286e+02   6.22e-03
  1.0677e+02   5.93e-03
  1.1083e+02   5.65e-03
  1.1505e+02   5.38e-03
  1.1942e+02   5.12e-03
  1.2397e+02   4.87e-03
  1.2868e+02   4.63e-03
  1.3358e+02   4.40e-03
  1.3866e+02   4.18e-03
  1.4394e+02   3.97e-03
  1.4941e+02   3.77e-03
  1.5509e+02   3.58e-03
  1.6100e+02   3.39e-03
  1.6712e+02   3.22e-03
  1.7348e+02   3.05e-03
  1.8008e+02   2.89e-03
  1.8693e+02   2.73e-03
  1.9404e+02   2.58e-03
  2.0142e+02   2.44e-03
  2.0908e+02   2.30e-03
  2.1704e+02   2.17e-03
  2.2529e+02   2.05e-03
  2.3387e+02   1.93e-03
  2.4276e+02   1.82e-03
  2.5200e+02   1.71e-03
  2.6158e+02   1.61e-03
  2.7154e+02   1.51e-03
  2.8187e+02   1.42e-03
  2.9259e+02   1.33e-03
  3.0372e+02   1.24e-03
  3.1527e+02   1.17e-03
  3.2727e+02   1.09e-03
  3.3972e+02   1.02e-03
  3.5264e+02   9.50e-04
  3.6606e+02   8.86e-04
  3.7998e+02   8.25e-04
  3.9444e+02   7.68e-04
  4.0945e+02   7.14e-04
  4.2502e+02   6.63e-04
  4.4119e+02   6.16e-04
  4.5798e+02   5.71e-04
  4.7540e+02   5.29e-04
  4.9348e+02   4.90e-04
  5.1226e+02   4.53e-04
  5.3175e+02   4.18e-04
  5.5198e+02   3.87e-04
  5.7297e+02   3.57e-04
  5.9477e+02   3.29e-04
  6.1740e+02   3.03e-04
  6.4089e+02   2.79e-04
  6.6527e+02   2.57e-04
  6.9058e+02   2.37e-04
  7.1685e+02   2.18e-04
  7.4412e+02   2.01e-04
  7.7243e+02   1.85e-04
  8.0181e+02   1.70e-04
  8.3232e+02   1.56e-04
  8.6398e+02   1.44e-04
  8.9685e+02   1.32e-04
  9.3097e+02   1.22e-04
  9.6638e+02   1.12e-04
  1.0031e+03   1.03e-04
  1.0413e+03   9.53e-05
  1.0809e+03   8.79e-05
  1.1220e+03   8.11e-05
  1.1647e+03   7.48e-05
  1.2090e+03   6.92e-05
  1.2550e+03   6.39e-05
  1.3028e+03   5.91e-05
  1.3523e+03   5.47e-05
  1.4038e+03   5.07e-05
  1.4572e+03   4.70e-05
  1.5126e+03   4.36e-05
  1.5702e+03   4.05e-05
  1.6299e+03   3.76e-05
  1.6919e+03   3.49e-05
  1.7563e+03   3.25e-05
  1.8231e+03   3.02e-05
  1.8925e+03   2.82e-05
  1.9645e+03   2.62e-05
  2.0392e+03   2.45e-05
  2.1168e+03   2.28e-05
  2.1973e+03   2.13e-05
  2.2809e+03   1.98e-05
  2.3677e+03   1.85e-05
  2.4577e+03   1.73e-05
  2.5512e+03   1.62e-05
  2.6483e+03   1.51e-05
  2.7490e+03   1.41e-05
  2.8536e+03   1.32e-05
  2.9622e+03   1.23e-05
  3.0749e+03   1.15e-05
  3.1918e+03   1.07e-05
  3.3133e+03   1.00e-05
  3.4393e+03   9.33e-06
  3.5702e+03   8.69e-06
  3.7060e+03   8.09e-06
  3.8470e+03   7.53e-06
  3.9933e+03   7.00e-06
  4.1452e+03   6.49e-06
  4.3029e+03   6.02e-06
  4.4666e+03   5.58e-06
  4.6366e+03   5.15e-06
  4.8129e+03   4.76e-06
  4.9960e+03   4.38e-06
  5.1861e+03   4.03e-06
  5.3834e+03   3.69e-06
  5.5882e+03   3.38e-06
  5.8008e+03   3.08e-06
  6.0215e+03   2.80e-06
  6.2506e+03   2.54e-06
  6.4883e+03   2.29e-06
  6.7352e+03   2.06e-06
  6.9914e+03   1.85e-06
  7.2574e+03   1.65e-06
  7.5335e+03   1.46e-06
  7.8201e+03   1.29e-06
  8.1176e+03   1.13e-06
  8.4264e+03   9.79e-07
  8.7470e+03   8.45e-07
  9.0797e+03   7.23e-07
  9.4251e+03   6.13e-07
  9.7837e+03   5.14e-07
  1.0156e+04   4.27e-07
  1.0542e+04   3.50e-07
  1.0943e+04   2.83e-07
  1.1360e+04   2.26e-07
  1.1792e+04   1.77e-07
  1.2240e+04   1.36e-07
  1.2706e+04   1.03e-07
  1.3189e+04   7.55e-08
  1.3691e+04   5.43e-08
  1.4212e+04   3.79e-08
  1.4753e+04   2.57e-08
  1.5314e+04   1.68e-08
  1.5897e+04   1.05e-08
  1.6501e+04   6.33e-09
  1.7129e+04   3.62e-09
  1.7781e+04   1.95e-09
  1.8457e+04   9.88e-10
  1.9159e+04   4.64e-10
  1.9888e+04   2.01e-10
  2.0645e+04   7.89e-11
  2.1430e+04   2.78e-11
  2.2245e+04   8.64e-12
  2.3092e+04   2.32e-12
  2.3970e+04   5.26e-13
  2.4882e+04   9.80e-14
  2.5829e+04   1.45e-14
  2.6811e+04   1.65e-15
  2.7831e+04   1.36e-16
  2.8890e+04   7.76e-18
  2.9989e+04   2.84e-19
  3.1130e+04   6.13e-21
  3.2314e+04   7.03e-23
  3.3544e+04   3.76e-25
  3.4820e+04   8.02e-28
  3.6144e+04   5.57e-31
  3.7519e+04   9.81e-35
  3.8947e+04   3.19e-39
  4.0428e+04   1.28e-44
  4.1966e+04   1.16e-46
  4.3563e+04   1.09e-46
  4.5220e+04   1.03e-46
  4.6941e+04   9.70e-47
  4.8726e+04   9.18e-47
  5.0580e+04   8.69e-47
