#  E [MeV]   Flux [# cm^{-2} s^{-1}  MeV^{-1}]
  3.0000e+04   1.46e-25
  3.1141e+04   1.40e-25
  3.2326e+04   1.34e-25
  3.3556e+04   1.29e-25
  3.4832e+04   1.24e-25
  3.6157e+04   1.19e-25
  3.7533e+04   1.14e-25
  3.8961e+04   1.09e-25
  4.0443e+04   1.05e-25
  4.1982e+04   1.00e-25
  4.3579e+04   9.61e-26
  4.5237e+04   9.21e-26
  4.6958e+04   8.83e-26
  4.8744e+04   8.46e-26
  5.0598e+04   8.11e-26
  5.2523e+04   7.77e-26
  5.4521e+04   7.44e-26
  5.6596e+04   7.13e-26
  5.8749e+04   6.83e-26
  6.0984e+04   6.54e-26
  6.3304e+04   6.26e-26
  6.5712e+04   5.99e-26
  6.8212e+04   5.74e-26
  7.0807e+04   5.49e-26
  7.3500e+04   5.25e-26
  7.6297e+04   5.03e-26
  7.9199e+04   4.81e-26
  8.2212e+04   4.60e-26
  8.5340e+04   4.40e-26
  8.8586e+04   4.20e-26
  9.1956e+04   4.02e-26
  9.5455e+04   3.84e-26
  9.9086e+04   3.67e-26
  1.0286e+05   3.50e-26
  1.0677e+05   3.34e-26
  1.1083e+05   3.19e-26
  1.1505e+05   3.05e-26
  1.1942e+05   2.91e-26
  1.2397e+05   2.77e-26
  1.2868e+05   2.65e-26
  1.3358e+05   2.52e-26
  1.3866e+05   2.40e-26
  1.4394e+05   2.29e-26
  1.4941e+05   2.18e-26
  1.5509e+05   2.08e-26
  1.6100e+05   1.98e-26
  1.6712e+05   1.88e-26
  1.7348e+05   1.79e-26
  1.8008e+05   1.70e-26
  1.8693e+05   1.61e-26
  1.9404e+05   1.53e-26
  2.0142e+05   1.45e-26
  2.0908e+05   1.38e-26
  2.1704e+05   1.31e-26
  2.2529e+05   1.24e-26
  2.3387e+05   1.17e-26
  2.4276e+05   1.11e-26
  2.5200e+05   1.05e-26
  2.6158e+05   9.92e-27
  2.7154e+05   9.37e-27
  2.8187e+05   8.85e-27
  2.9259e+05   8.35e-27
  3.0372e+05   7.87e-27
  3.1527e+05   7.41e-27
  3.2727e+05   6.97e-27
  3.3972e+05   6.55e-27
  3.5264e+05   6.15e-27
  3.6606e+05   5.78e-27
  3.7998e+05   5.42e-27
  3.9444e+05   5.08e-27
  4.0945e+05   4.75e-27
  4.2502e+05   4.44e-27
  4.4119e+05   4.15e-27
  4.5798e+05   3.88e-27
  4.7540e+05   3.62e-27
  4.9348e+05   3.38e-27
  5.1226e+05   3.15e-27
  5.3175e+05   2.93e-27
  5.5198e+05   2.73e-27
  5.7297e+05   2.53e-27
  5.9477e+05   2.35e-27
  6.1740e+05   2.18e-27
  6.4089e+05   2.03e-27
  6.6527e+05   1.88e-27
  6.9058e+05   1.74e-27
  7.1685e+05   1.61e-27
  7.4412e+05   1.49e-27
  7.7243e+05   1.38e-27
  8.0181e+05   1.28e-27
  8.3232e+05   1.18e-27
  8.6398e+05   1.09e-27
  8.9685e+05   1.01e-27
  9.3097e+05   9.30e-28
  9.6638e+05   8.59e-28
  1.0031e+06   7.93e-28
  1.0413e+06   7.32e-28
  1.0809e+06   6.76e-28
  1.1220e+06   6.24e-28
  1.1647e+06   5.75e-28
  1.2090e+06   5.31e-28
  1.2550e+06   4.89e-28
  1.3028e+06   4.51e-28
  1.3523e+06   4.16e-28
  1.4038e+06   3.83e-28
  1.4572e+06   3.53e-28
  1.5126e+06   3.25e-28
  1.5702e+06   3.00e-28
  1.6299e+06   2.76e-28
  1.6919e+06   2.54e-28
  1.7563e+06   2.34e-28
  1.8231e+06   2.16e-28
  1.8925e+06   1.98e-28
  1.9645e+06   1.83e-28
  2.0392e+06   1.68e-28
  2.1168e+06   1.54e-28
  2.1973e+06   1.42e-28
  2.2809e+06   1.30e-28
  2.3677e+06   1.19e-28
  2.4577e+06   1.10e-28
  2.5512e+06   1.00e-28
  2.6483e+06   9.19e-29
  2.7490e+06   8.41e-29
  2.8536e+06   7.70e-29
  2.9622e+06   7.03e-29
  3.0749e+06   6.41e-29
  3.1918e+06   5.85e-29
  3.3133e+06   5.32e-29
  3.4393e+06   4.84e-29
  3.5702e+06   4.40e-29
  3.7060e+06   3.99e-29
  3.8470e+06   3.61e-29
  3.9933e+06   3.27e-29
  4.1452e+06   2.95e-29
  4.3029e+06   2.66e-29
  4.4666e+06   2.40e-29
  4.6366e+06   2.16e-29
  4.8129e+06   1.93e-29
  4.9960e+06   1.73e-29
  5.1861e+06   1.55e-29
  5.3834e+06   1.37e-29
  5.5882e+06   1.22e-29
  5.8008e+06   1.09e-29
  6.0215e+06   9.57e-30
  6.2506e+06   8.46e-30
  6.4883e+06   7.44e-30
  6.7352e+06   6.50e-30
  6.9914e+06   5.70e-30
  7.2574e+06   4.96e-30
  7.5335e+06   4.29e-30
  7.8201e+06   3.71e-30
  8.1176e+06   3.19e-30
  8.4264e+06   2.72e-30
  8.7470e+06   2.33e-30
  9.0797e+06   1.97e-30
  9.4251e+06   1.66e-30
  9.7837e+06   1.39e-30
  1.0156e+07   1.16e-30
  1.0542e+07   9.51e-31
  1.0943e+07   7.80e-31
  1.1360e+07   6.34e-31
  1.1792e+07   5.09e-31
  1.2240e+07   4.05e-31
  1.2706e+07   3.20e-31
  1.3189e+07   2.48e-31
  1.3691e+07   1.90e-31
  1.4212e+07   1.44e-31
  1.4753e+07   1.07e-31
  1.5314e+07   7.80e-32
  1.5897e+07   5.59e-32
  1.6501e+07   3.89e-32
  1.7129e+07   2.64e-32
  1.7781e+07   1.74e-32
  1.8457e+07   1.11e-32
  1.9159e+07   6.77e-33
  1.9888e+07   3.99e-33
  2.0645e+07   2.22e-33
  2.1430e+07   1.16e-33
  2.2245e+07   5.71e-34
  2.3092e+07   2.58e-34
  2.3970e+07   1.05e-34
  2.4882e+07   3.90e-35
  2.5829e+07   1.26e-35
  2.6811e+07   3.46e-36
  2.7831e+07   8.00e-37
  2.8890e+07   1.48e-37
  2.9989e+07   2.08e-38
  3.1130e+07   2.16e-39
  3.2314e+07   1.52e-40
  3.3544e+07   6.64e-42
  3.4820e+07   1.66e-43
  3.6144e+07   2.03e-45
  3.7519e+07   1.01e-47
  3.8947e+07   1.77e-50
  4.0428e+07   7.72e-54
  4.1966e+07   5.65e-58
  4.3563e+07   5.09e-63
  4.5220e+07   2.56e-69
  4.6941e+07   1.76e-70
  4.8726e+07   2.19e-70
  5.0580e+07   2.72e-70
