#  E [MeV]   Flux [# cm^{-2} s^{-1}  MeV^{-1}]
  3.0000e+04   1.28e-17
  3.0411e+04   1.23e-17
  3.0828e+04   1.19e-17
  3.1250e+04   1.15e-17
  3.1678e+04   1.11e-17
  3.2112e+04   1.07e-17
  3.2552e+04   1.04e-17
  3.2998e+04   1.00e-17
  3.3450e+04   9.65e-18
  3.3909e+04   9.31e-18
  3.4373e+04   8.98e-18
  3.4844e+04   8.66e-18
  3.5322e+04   8.34e-18
  3.5806e+04   8.06e-18
  3.6296e+04   7.77e-18
  3.6794e+04   7.50e-18
  3.7298e+04   7.23e-18
  3.7809e+04   6.97e-18
  3.8327e+04   6.71e-18
  3.8852e+04   6.46e-18
  3.9384e+04   6.22e-18
  3.9924e+04   5.99e-18
  4.0471e+04   5.78e-18
  4.1025e+04   5.57e-18
  4.1587e+04   5.36e-18
  4.2157e+04   5.16e-18
  4.2735e+04   4.97e-18
  4.3320e+04   4.78e-18
  4.3914e+04   4.59e-18
  4.4516e+04   4.41e-18
  4.5125e+04   4.25e-18
  4.5744e+04   4.09e-18
  4.6370e+04   3.93e-18
  4.7006e+04   3.78e-18
  4.7650e+04   3.63e-18
  4.8303e+04   3.49e-18
  4.8965e+04   3.34e-18
  4.9635e+04   3.21e-18
  5.0315e+04   3.08e-18
  5.1005e+04   2.96e-18
  5.1704e+04   2.85e-18
  5.2412e+04   2.73e-18
  5.3130e+04   2.62e-18
  5.3858e+04   2.52e-18
  5.4596e+04   2.41e-18
  5.5344e+04   2.31e-18
  5.6102e+04   2.21e-18
  5.6871e+04   2.12e-18
  5.7650e+04   2.04e-18
  5.8440e+04   1.96e-18
  5.9241e+04   1.88e-18
  6.0053e+04   1.80e-18
  6.0875e+04   1.72e-18
  6.1709e+04   1.65e-18
  6.2555e+04   1.57e-18
  6.3412e+04   1.51e-18
  6.4281e+04   1.45e-18
  6.5162e+04   1.39e-18
  6.6054e+04   1.33e-18
  6.6959e+04   1.27e-18
  6.7877e+04   1.22e-18
  6.8807e+04   1.16e-18
  6.9750e+04   1.11e-18
  7.0705e+04   1.06e-18
  7.1674e+04   1.02e-18
  7.2656e+04   9.74e-19
  7.3652e+04   9.32e-19
  7.4661e+04   8.91e-19
  7.5684e+04   8.52e-19
  7.6721e+04   8.13e-19
  7.7772e+04   7.75e-19
  7.8837e+04   7.38e-19
  7.9917e+04   7.06e-19
  8.1012e+04   6.76e-19
  8.2122e+04   6.47e-19
  8.3248e+04   6.19e-19
  8.4388e+04   5.91e-19
  8.5544e+04   5.63e-19
  8.6717e+04   5.36e-19
  8.7905e+04   5.10e-19
  8.9109e+04   4.87e-19
  9.0330e+04   4.66e-19
  9.1568e+04   4.45e-19
  9.2822e+04   4.25e-19
  9.4094e+04   4.05e-19
  9.5383e+04   3.86e-19
  9.6690e+04   3.68e-19
  9.8015e+04   3.49e-19
  9.9358e+04   3.31e-19
  1.0072e+05   3.17e-19
  1.0210e+05   3.03e-19
  1.0350e+05   2.89e-19
  1.0492e+05   2.76e-19
  1.0635e+05   2.63e-19
  1.0781e+05   2.50e-19
  1.0929e+05   2.37e-19
  1.1079e+05   2.25e-19
  1.1230e+05   2.14e-19
  1.1384e+05   2.05e-19
  1.1540e+05   1.96e-19
  1.1698e+05   1.87e-19
  1.1859e+05   1.78e-19
  1.2021e+05   1.69e-19
  1.2186e+05   1.61e-19
  1.2353e+05   1.52e-19
  1.2522e+05   1.44e-19
  1.2694e+05   1.38e-19
  1.2867e+05   1.32e-19
  1.3044e+05   1.26e-19
  1.3222e+05   1.20e-19
  1.3404e+05   1.14e-19
  1.3587e+05   1.08e-19
  1.3773e+05   1.03e-19
  1.3962e+05   9.74e-20
  1.4153e+05   9.27e-20
  1.4347e+05   8.86e-20
  1.4544e+05   8.45e-20
  1.4743e+05   8.05e-20
  1.4945e+05   7.67e-20
  1.5150e+05   7.29e-20
  1.5358e+05   6.92e-20
  1.5568e+05   6.56e-20
  1.5781e+05   6.21e-20
  1.5997e+05   5.94e-20
  1.6217e+05   5.67e-20
  1.6439e+05   5.40e-20
  1.6664e+05   5.15e-20
  1.6892e+05   4.90e-20
  1.7124e+05   4.65e-20
  1.7358e+05   4.41e-20
  1.7596e+05   4.18e-20
  1.7837e+05   3.98e-20
  1.8082e+05   3.80e-20
  1.8330e+05   3.63e-20
  1.8581e+05   3.46e-20
  1.8835e+05   3.29e-20
  1.9093e+05   3.13e-20
  1.9355e+05   2.97e-20
  1.9620e+05   2.81e-20
  1.9889e+05   2.67e-20
  2.0161e+05   2.55e-20
  2.0438e+05   2.43e-20
  2.0718e+05   2.32e-20
  2.1002e+05   2.20e-20
  2.1289e+05   2.09e-20
  2.1581e+05   1.99e-20
  2.1877e+05   1.88e-20
  2.2176e+05   1.78e-20
  2.2480e+05   1.70e-20
  2.2788e+05   1.62e-20
  2.3101e+05   1.55e-20
  2.3417e+05   1.48e-20
  2.3738e+05   1.41e-20
  2.4063e+05   1.34e-20
  2.4393e+05   1.28e-20
  2.4727e+05   1.21e-20
  2.5066e+05   1.15e-20
  2.5409e+05   1.11e-20
  2.5757e+05   1.06e-20
  2.6110e+05   1.02e-20
  2.6468e+05   9.74e-21
  2.6831e+05   9.32e-21
  2.7198e+05   8.91e-21
  2.7571e+05   8.51e-21
  2.7949e+05   8.12e-21
  2.8332e+05   7.84e-21
  2.8720e+05   7.58e-21
  2.9113e+05   7.33e-21
  2.9512e+05   7.09e-21
  2.9917e+05   6.85e-21
  3.0327e+05   6.62e-21
  3.0742e+05   6.39e-21
  3.1163e+05   6.16e-21
  3.1590e+05   5.97e-21
  3.2023e+05   5.82e-21
  3.2462e+05   5.68e-21
  3.2907e+05   5.54e-21
  3.3357e+05   5.40e-21
  3.3814e+05   5.26e-21
  3.4278e+05   5.13e-21
  3.4747e+05   5.00e-21
  3.5223e+05   4.87e-21
  3.5706e+05   4.78e-21
  3.6195e+05   4.70e-21
  3.6691e+05   4.61e-21
  3.7194e+05   4.53e-21
  3.7704e+05   4.45e-21
  3.8220e+05   4.37e-21
  3.8744e+05   4.29e-21
  3.9275e+05   4.22e-21
  3.9813e+05   4.14e-21
  4.0358e+05   4.06e-21
  4.0911e+05   3.99e-21
  4.1472e+05   3.92e-21
  4.2040e+05   3.84e-21
  4.2616e+05   3.77e-21
  4.3200e+05   3.70e-21
  4.3792e+05   3.63e-21
  4.4392e+05   3.57e-21
  4.5000e+05   3.49e-21
