#  E [GeV]   # per interaction  [GeV^{-1}]
  3.0000e+01   6.18e-01
  3.1232e+01   5.91e-01
  3.2514e+01   5.65e-01
  3.3849e+01   5.40e-01
  3.5238e+01   5.16e-01
  3.6685e+01   4.94e-01
  3.8191e+01   4.72e-01
  3.9759e+01   4.51e-01
  4.1391e+01   4.31e-01
  4.3090e+01   4.12e-01
  4.4859e+01   3.94e-01
  4.6701e+01   3.76e-01
  4.8618e+01   3.60e-01
  5.0614e+01   3.44e-01
  5.2692e+01   3.28e-01
  5.4855e+01   3.14e-01
  5.7107e+01   2.99e-01
  5.9451e+01   2.86e-01
  6.1892e+01   2.73e-01
  6.4433e+01   2.61e-01
  6.7078e+01   2.49e-01
  6.9832e+01   2.38e-01
  7.2699e+01   2.27e-01
  7.5683e+01   2.16e-01
  7.8790e+01   2.06e-01
  8.2025e+01   1.97e-01
  8.5392e+01   1.88e-01
  8.8898e+01   1.79e-01
  9.2547e+01   1.71e-01
  9.6347e+01   1.63e-01
  1.0030e+02   1.55e-01
  1.0442e+02   1.48e-01
  1.0871e+02   1.41e-01
  1.1317e+02   1.34e-01
  1.1782e+02   1.28e-01
  1.2265e+02   1.21e-01
  1.2769e+02   1.16e-01
  1.3293e+02   1.10e-01
  1.3839e+02   1.04e-01
  1.4407e+02   9.93e-02
  1.4998e+02   9.44e-02
  1.5614e+02   8.96e-02
  1.6255e+02   8.50e-02
  1.6922e+02   8.07e-02
  1.7617e+02   7.65e-02
  1.8340e+02   7.25e-02
  1.9093e+02   6.87e-02
  1.9877e+02   6.50e-02
  2.0693e+02   6.15e-02
  2.1543e+02   5.81e-02
  2.2427e+02   5.49e-02
  2.3348e+02   5.18e-02
  2.4306e+02   4.88e-02
  2.5304e+02   4.60e-02
  2.6343e+02   4.33e-02
  2.7424e+02   4.07e-02
  2.8550e+02   3.83e-02
  2.9722e+02   3.59e-02
  3.0942e+02   3.37e-02
  3.2213e+02   3.15e-02
  3.3535e+02   2.95e-02
  3.4912e+02   2.76e-02
  3.6345e+02   2.57e-02
  3.7837e+02   2.40e-02
  3.9390e+02   2.23e-02
  4.1008e+02   2.08e-02
  4.2691e+02   1.93e-02
  4.4444e+02   1.79e-02
  4.6268e+02   1.66e-02
  4.8168e+02   1.53e-02
  5.0145e+02   1.42e-02
  5.2204e+02   1.31e-02
  5.4347e+02   1.21e-02
  5.6578e+02   1.11e-02
  5.8901e+02   1.03e-02
  6.1319e+02   9.44e-03
  6.3836e+02   8.67e-03
  6.6457e+02   7.97e-03
  6.9185e+02   7.31e-03
  7.2025e+02   6.71e-03
  7.4982e+02   6.15e-03
  7.8061e+02   5.63e-03
  8.1265e+02   5.16e-03
  8.4601e+02   4.73e-03
  8.8075e+02   4.33e-03
  9.1690e+02   3.96e-03
  9.5455e+02   3.63e-03
  9.9373e+02   3.32e-03
  1.0345e+03   3.04e-03
  1.0770e+03   2.78e-03
  1.1212e+03   2.55e-03
  1.1672e+03   2.33e-03
  1.2152e+03   2.13e-03
  1.2650e+03   1.96e-03
  1.3170e+03   1.79e-03
  1.3711e+03   1.64e-03
  1.4273e+03   1.51e-03
  1.4859e+03   1.38e-03
  1.5469e+03   1.27e-03
  1.6104e+03   1.16e-03
  1.6766e+03   1.07e-03
  1.7454e+03   9.77e-04
  1.8170e+03   8.97e-04
  1.8916e+03   8.23e-04
  1.9693e+03   7.55e-04
  2.0501e+03   6.92e-04
  2.1343e+03   6.34e-04
  2.2219e+03   5.81e-04
  2.3131e+03   5.32e-04
  2.4081e+03   4.87e-04
  2.5070e+03   4.46e-04
  2.6099e+03   4.07e-04
  2.7170e+03   3.72e-04
  2.8286e+03   3.40e-04
  2.9447e+03   3.09e-04
  3.0656e+03   2.82e-04
  3.1914e+03   2.56e-04
  3.3225e+03   2.32e-04
  3.4589e+03   2.11e-04
  3.6008e+03   1.90e-04
  3.7487e+03   1.72e-04
  3.9026e+03   1.55e-04
  4.0628e+03   1.39e-04
  4.2296e+03   1.25e-04
  4.4032e+03   1.11e-04
  4.5840e+03   9.93e-05
  4.7722e+03   8.82e-05
  4.9681e+03   7.82e-05
  5.1720e+03   6.89e-05
  5.3844e+03   6.06e-05
  5.6054e+03   5.31e-05
  5.8355e+03   4.62e-05
  6.0751e+03   4.01e-05
  6.3245e+03   3.46e-05
  6.5841e+03   2.96e-05
  6.8544e+03   2.53e-05
  7.1358e+03   2.15e-05
  7.4288e+03   1.80e-05
  7.7338e+03   1.51e-05
  8.0513e+03   1.25e-05
  8.3818e+03   1.02e-05
  8.7259e+03   8.33e-06
  9.0841e+03   6.68e-06
  9.4571e+03   5.30e-06
  9.8453e+03   4.16e-06
  1.0249e+04   3.21e-06
  1.0670e+04   2.44e-06
  1.1108e+04   1.83e-06
  1.1564e+04   1.34e-06
  1.2039e+04   9.60e-07
  1.2533e+04   6.73e-07
  1.3048e+04   4.58e-07
  1.3584e+04   3.04e-07
  1.4141e+04   1.95e-07
  1.4722e+04   1.20e-07
  1.5326e+04   7.12e-08
  1.5955e+04   4.02e-08
  1.6610e+04   2.14e-08
  1.7292e+04   1.08e-08
  1.8002e+04   5.07e-09
  1.8741e+04   2.19e-09
  1.9511e+04   8.70e-10
  2.0312e+04   3.09e-10
  2.1145e+04   9.73e-11
  2.2013e+04   2.67e-11
  2.2917e+04   6.19e-12
  2.3858e+04   1.19e-12
  2.4837e+04   1.83e-13
  2.5857e+04   2.13e-14
  2.6919e+04   1.83e-15
  2.8024e+04   1.08e-16
  2.9174e+04   4.03e-18
  3.0372e+04   8.90e-20
  3.1619e+04   1.02e-21
  3.2917e+04   5.17e-24
  3.4268e+04   1.02e-26
  3.5675e+04   5.95e-30
  3.7140e+04   7.81e-34
  3.8664e+04   1.64e-38
  4.0252e+04   3.27e-44
  4.1904e+04   5.46e-47
  4.3624e+04   4.63e-47
  4.5415e+04   3.85e-47
  4.7280e+04   3.20e-47
  4.9221e+04   2.70e-47
  5.1241e+04   2.23e-47
  5.3345e+04   1.86e-47
  5.5535e+04   1.56e-47
  5.7815e+04   1.28e-47
  6.0188e+04   1.06e-47
  6.2659e+04   8.77e-48
  6.5232e+04   7.07e-48
  6.7910e+04   5.85e-48
  7.0698e+04   4.78e-48
  7.3600e+04   3.78e-48
  7.6621e+04   3.04e-48
  7.9767e+04   2.35e-48
  8.3042e+04   1.73e-48
  8.6451e+04   1.28e-48
  9.0000e+04   8.57e-49
