#  E [MeV]   Flux [# cm^{-2} s^{-1}  MeV^{-1}]
  3.0000e+04   3.41e-20
  3.1123e+04   3.27e-20
  3.2288e+04   3.12e-20
  3.3497e+04   2.99e-20
  3.4751e+04   2.86e-20
  3.6051e+04   2.73e-20
  3.7401e+04   2.61e-20
  3.8801e+04   2.50e-20
  4.0253e+04   2.39e-20
  4.1760e+04   2.28e-20
  4.3324e+04   2.18e-20
  4.4945e+04   2.08e-20
  4.6628e+04   1.99e-20
  4.8373e+04   1.90e-20
  5.0184e+04   1.81e-20
  5.2063e+04   1.73e-20
  5.4011e+04   1.65e-20
  5.6033e+04   1.57e-20
  5.8131e+04   1.50e-20
  6.0307e+04   1.43e-20
  6.2564e+04   1.37e-20
  6.4906e+04   1.30e-20
  6.7336e+04   1.24e-20
  6.9857e+04   1.18e-20
  7.2472e+04   1.13e-20
  7.5184e+04   1.08e-20
  7.7999e+04   1.02e-20
  8.0919e+04   9.76e-21
  8.3948e+04   9.30e-21
  8.7090e+04   8.85e-21
  9.0350e+04   8.43e-21
  9.3732e+04   8.02e-21
  9.7241e+04   7.64e-21
  1.0088e+05   7.27e-21
  1.0466e+05   6.92e-21
  1.0858e+05   6.58e-21
  1.1264e+05   6.26e-21
  1.1686e+05   5.95e-21
  1.2123e+05   5.66e-21
  1.2577e+05   5.38e-21
  1.3048e+05   5.11e-21
  1.3536e+05   4.85e-21
  1.4043e+05   4.61e-21
  1.4568e+05   4.38e-21
  1.5114e+05   4.16e-21
  1.5680e+05   3.94e-21
  1.6266e+05   3.74e-21
  1.6875e+05   3.55e-21
  1.7507e+05   3.37e-21
  1.8162e+05   3.19e-21
  1.8842e+05   3.03e-21
  1.9548e+05   2.87e-21
  2.0279e+05   2.72e-21
  2.1039e+05   2.57e-21
  2.1826e+05   2.44e-21
  2.2643e+05   2.31e-21
  2.3491e+05   2.18e-21
  2.4370e+05   2.06e-21
  2.5282e+05   1.95e-21
  2.6229e+05   1.85e-21
  2.7211e+05   1.74e-21
  2.8229e+05   1.65e-21
  2.9286e+05   1.55e-21
  3.0382e+05   1.47e-21
  3.1519e+05   1.38e-21
  3.2699e+05   1.30e-21
  3.3923e+05   1.23e-21
  3.5193e+05   1.16e-21
  3.6511e+05   1.09e-21
  3.7877e+05   1.03e-21
  3.9295e+05   9.65e-22
  4.0766e+05   9.07e-22
  4.2292e+05   8.53e-22
  4.3875e+05   8.01e-22
  4.5518e+05   7.52e-22
  4.7222e+05   7.06e-22
  4.8989e+05   6.62e-22
  5.0823e+05   6.21e-22
  5.2726e+05   5.82e-22
  5.4699e+05   5.45e-22
  5.6747e+05   5.11e-22
  5.8871e+05   4.78e-22
  6.1075e+05   4.47e-22
  6.3361e+05   4.18e-22
  6.5733e+05   3.91e-22
  6.8194e+05   3.65e-22
  7.0746e+05   3.41e-22
  7.3395e+05   3.18e-22
  7.6142e+05   2.97e-22
  7.8992e+05   2.77e-22
  8.1949e+05   2.58e-22
  8.5017e+05   2.40e-22
  8.8199e+05   2.24e-22
  9.1501e+05   2.08e-22
  9.4926e+05   1.94e-22
  9.8479e+05   1.80e-22
  1.0217e+06   1.67e-22
  1.0599e+06   1.55e-22
  1.0996e+06   1.44e-22
  1.1407e+06   1.34e-22
  1.1834e+06   1.24e-22
  1.2277e+06   1.15e-22
  1.2737e+06   1.06e-22
  1.3214e+06   9.80e-23
  1.3708e+06   9.05e-23
  1.4222e+06   8.36e-23
  1.4754e+06   7.72e-23
  1.5306e+06   7.11e-23
  1.5879e+06   6.55e-23
  1.6474e+06   6.04e-23
  1.7090e+06   5.56e-23
  1.7730e+06   5.10e-23
  1.8394e+06   4.69e-23
  1.9082e+06   4.31e-23
  1.9797e+06   3.95e-23
  2.0538e+06   3.62e-23
  2.1306e+06   3.32e-23
  2.2104e+06   3.03e-23
  2.2931e+06   2.77e-23
  2.3790e+06   2.53e-23
  2.4680e+06   2.30e-23
  2.5604e+06   2.10e-23
  2.6563e+06   1.91e-23
  2.7557e+06   1.74e-23
  2.8589e+06   1.58e-23
  2.9659e+06   1.43e-23
  3.0769e+06   1.30e-23
  3.1921e+06   1.17e-23
  3.3116e+06   1.06e-23
  3.4355e+06   9.58e-24
  3.5641e+06   8.63e-24
  3.6976e+06   7.80e-24
  3.8360e+06   7.01e-24
  3.9796e+06   6.29e-24
  4.1285e+06   5.66e-24
  4.2831e+06   5.08e-24
  4.4434e+06   4.53e-24
  4.6097e+06   4.06e-24
  4.7823e+06   3.63e-24
  4.9613e+06   3.22e-24
  5.1470e+06   2.88e-24
  5.3397e+06   2.56e-24
  5.5396e+06   2.26e-24
  5.7470e+06   2.01e-24
  5.9621e+06   1.78e-24
  6.1853e+06   1.57e-24
  6.4168e+06   1.39e-24
  6.6570e+06   1.23e-24
  6.9062e+06   1.08e-24
  7.1647e+06   9.46e-25
  7.4329e+06   8.34e-25
  7.7112e+06   7.29e-25
  7.9998e+06   6.37e-25
  8.2993e+06   5.60e-25
  8.6100e+06   4.87e-25
  8.9323e+06   4.23e-25
  9.2666e+06   3.70e-25
  9.6135e+06   3.21e-25
  9.9734e+06   2.76e-25
  1.0347e+07   2.41e-25
  1.0734e+07   2.09e-25
  1.1136e+07   1.78e-25
  1.1553e+07   1.55e-25
  1.1985e+07   1.34e-25
  1.2434e+07   1.14e-25
  1.2899e+07   9.90e-26
  1.3382e+07   8.52e-26
  1.3883e+07   7.24e-26
  1.4403e+07   6.23e-26
  1.4942e+07   5.35e-26
  1.5501e+07   4.54e-26
  1.6081e+07   3.87e-26
  1.6683e+07   3.31e-26
  1.7308e+07   2.80e-26
  1.7956e+07   2.37e-26
  1.8628e+07   2.01e-26
  1.9325e+07   1.69e-26
  2.0049e+07   1.42e-26
  2.0799e+07   1.19e-26
  2.1578e+07   9.93e-27
  2.2386e+07   8.18e-27
  2.3224e+07   6.74e-27
  2.4093e+07   5.47e-27
  2.4995e+07   4.35e-27
  2.5930e+07   3.44e-27
  2.6901e+07   2.65e-27
  2.7908e+07   1.99e-27
  2.8953e+07   1.46e-27
  3.0037e+07   1.04e-27
  3.1161e+07   7.01e-28
  3.2327e+07   4.53e-28
  3.3537e+07   2.75e-28
  3.4793e+07   1.55e-28
  3.6095e+07   7.89e-29
  3.7446e+07   3.58e-29
  3.8848e+07   1.41e-29
  4.0302e+07   4.62e-30
  4.1811e+07   1.21e-30
  4.3376e+07   2.39e-31
  4.5000e+07   3.33e-32
