#  E [MeV]   Flux [# cm^{-2} s^{-1}  MeV^{-1}]
  3.0000e+04   1.10e-24
  3.1141e+04   1.06e-24
  3.2326e+04   1.01e-24
  3.3556e+04   9.65e-25
  3.4832e+04   9.22e-25
  3.6157e+04   8.81e-25
  3.7533e+04   8.42e-25
  3.8961e+04   8.05e-25
  4.0443e+04   7.69e-25
  4.1982e+04   7.34e-25
  4.3579e+04   7.01e-25
  4.5237e+04   6.69e-25
  4.6958e+04   6.39e-25
  4.8744e+04   6.10e-25
  5.0598e+04   5.82e-25
  5.2523e+04   5.55e-25
  5.4521e+04   5.30e-25
  5.6596e+04   5.05e-25
  5.8749e+04   4.82e-25
  6.0984e+04   4.59e-25
  6.3304e+04   4.38e-25
  6.5712e+04   4.17e-25
  6.8212e+04   3.98e-25
  7.0807e+04   3.79e-25
  7.3500e+04   3.61e-25
  7.6297e+04   3.44e-25
  7.9199e+04   3.28e-25
  8.2212e+04   3.12e-25
  8.5340e+04   2.97e-25
  8.8586e+04   2.83e-25
  9.1956e+04   2.69e-25
  9.5455e+04   2.56e-25
  9.9086e+04   2.44e-25
  1.0286e+05   2.32e-25
  1.0677e+05   2.20e-25
  1.1083e+05   2.09e-25
  1.1505e+05   1.99e-25
  1.1942e+05   1.89e-25
  1.2397e+05   1.80e-25
  1.2868e+05   1.71e-25
  1.3358e+05   1.62e-25
  1.3866e+05   1.54e-25
  1.4394e+05   1.46e-25
  1.4941e+05   1.39e-25
  1.5509e+05   1.32e-25
  1.6100e+05   1.25e-25
  1.6712e+05   1.19e-25
  1.7348e+05   1.12e-25
  1.8008e+05   1.07e-25
  1.8693e+05   1.01e-25
  1.9404e+05   9.56e-26
  2.0142e+05   9.06e-26
  2.0908e+05   8.58e-26
  2.1704e+05   8.12e-26
  2.2529e+05   7.68e-26
  2.3387e+05   7.27e-26
  2.4276e+05   6.87e-26
  2.5200e+05   6.50e-26
  2.6158e+05   6.14e-26
  2.7154e+05   5.80e-26
  2.8187e+05   5.48e-26
  2.9259e+05   5.17e-26
  3.0372e+05   4.88e-26
  3.1527e+05   4.60e-26
  3.2727e+05   4.34e-26
  3.3972e+05   4.09e-26
  3.5264e+05   3.85e-26
  3.6606e+05   3.62e-26
  3.7998e+05   3.41e-26
  3.9444e+05   3.21e-26
  4.0945e+05   3.02e-26
  4.2502e+05   2.83e-26
  4.4119e+05   2.66e-26
  4.5798e+05   2.50e-26
  4.7540e+05   2.34e-26
  4.9348e+05   2.20e-26
  5.1226e+05   2.06e-26
  5.3175e+05   1.93e-26
  5.5198e+05   1.81e-26
  5.7297e+05   1.69e-26
  5.9477e+05   1.58e-26
  6.1740e+05   1.48e-26
  6.4089e+05   1.38e-26
  6.6527e+05   1.29e-26
  6.9058e+05   1.21e-26
  7.1685e+05   1.13e-26
  7.4412e+05   1.05e-26
  7.7243e+05   9.79e-27
  8.0181e+05   9.13e-27
  8.3232e+05   8.50e-27
  8.6398e+05   7.92e-27
  8.9685e+05   7.37e-27
  9.3097e+05   6.85e-27
  9.6638e+05   6.37e-27
  1.0031e+06   5.92e-27
  1.0413e+06   5.50e-27
  1.0809e+06   5.10e-27
  1.1220e+06   4.73e-27
  1.1647e+06   4.39e-27
  1.2090e+06   4.07e-27
  1.2550e+06   3.77e-27
  1.3028e+06   3.49e-27
  1.3523e+06   3.22e-27
  1.4038e+06   2.98e-27
  1.4572e+06   2.75e-27
  1.5126e+06   2.54e-27
  1.5702e+06   2.34e-27
  1.6299e+06   2.16e-27
  1.6919e+06   1.99e-27
  1.7563e+06   1.83e-27
  1.8231e+06   1.68e-27
  1.8925e+06   1.55e-27
  1.9645e+06   1.42e-27
  2.0392e+06   1.30e-27
  2.1168e+06   1.19e-27
  2.1973e+06   1.09e-27
  2.2809e+06   1.00e-27
  2.3677e+06   9.16e-28
  2.4577e+06   8.35e-28
  2.5512e+06   7.63e-28
  2.6483e+06   6.95e-28
  2.7490e+06   6.32e-28
  2.8536e+06   5.75e-28
  2.9622e+06   5.23e-28
  3.0749e+06   4.74e-28
  3.1918e+06   4.29e-28
  3.3133e+06   3.89e-28
  3.4393e+06   3.52e-28
  3.5702e+06   3.17e-28
  3.7060e+06   2.87e-28
  3.8470e+06   2.58e-28
  3.9933e+06   2.32e-28
  4.1452e+06   2.09e-28
  4.3029e+06   1.88e-28
  4.4666e+06   1.68e-28
  4.6366e+06   1.51e-28
  4.8129e+06   1.35e-28
  4.9960e+06   1.20e-28
  5.1861e+06   1.07e-28
  5.3834e+06   9.53e-29
  5.5882e+06   8.43e-29
  5.8008e+06   7.51e-29
  6.0215e+06   6.65e-29
  6.2506e+06   5.85e-29
  6.4883e+06   5.19e-29
  6.7352e+06   4.58e-29
  6.9914e+06   4.01e-29
  7.2574e+06   3.54e-29
  7.5335e+06   3.11e-29
  7.8201e+06   2.70e-29
  8.1176e+06   2.38e-29
  8.4264e+06   2.08e-29
  8.7470e+06   1.80e-29
  9.0797e+06   1.57e-29
  9.4251e+06   1.37e-29
  9.7837e+06   1.18e-29
  1.0156e+07   1.02e-29
  1.0542e+07   8.84e-30
  1.0943e+07   7.57e-30
  1.1360e+07   6.51e-30
  1.1792e+07   5.61e-30
  1.2240e+07   4.78e-30
  1.2706e+07   4.08e-30
  1.3189e+07   3.49e-30
  1.3691e+07   2.96e-30
  1.4212e+07   2.50e-30
  1.4753e+07   2.13e-30
  1.5314e+07   1.79e-30
  1.5897e+07   1.50e-30
  1.6501e+07   1.27e-30
  1.7129e+07   1.06e-30
  1.7781e+07   8.74e-31
  1.8457e+07   7.29e-31
  1.9159e+07   6.00e-31
  1.9888e+07   4.88e-31
  2.0645e+07   4.00e-31
  2.1430e+07   3.23e-31
  2.2245e+07   2.57e-31
  2.3092e+07   2.05e-31
  2.3970e+07   1.60e-31
  2.4882e+07   1.22e-31
  2.5829e+07   9.25e-32
  2.6811e+07   6.80e-32
  2.7831e+07   4.82e-32
  2.8890e+07   3.33e-32
  2.9989e+07   2.19e-32
  3.1130e+07   1.36e-32
  3.2314e+07   7.99e-33
  3.3544e+07   4.33e-33
  3.4820e+07   2.12e-33
  3.6144e+07   9.25e-34
  3.7519e+07   3.49e-34
  3.8947e+07   1.09e-34
  4.0428e+07   2.70e-35
  4.1966e+07   4.99e-36
  4.3563e+07   6.37e-37
  4.5220e+07   5.06e-38
  4.6941e+07   2.18e-39
  4.8726e+07   4.27e-41
  5.0580e+07   3.00e-43
