#  E [MeV]   Flux [# cm^{-2} s^{-1}  MeV^{-1}]
  3.0000e+04   5.75e-24
  3.0782e+04   5.56e-24
  3.1585e+04   5.38e-24
  3.2409e+04   5.20e-24
  3.3255e+04   5.03e-24
  3.4122e+04   4.86e-24
  3.5012e+04   4.70e-24
  3.5925e+04   4.54e-24
  3.6862e+04   4.39e-24
  3.7824e+04   4.24e-24
  3.8810e+04   4.09e-24
  3.9822e+04   3.95e-24
  4.0861e+04   3.81e-24
  4.1927e+04   3.68e-24
  4.3021e+04   3.55e-24
  4.4143e+04   3.43e-24
  4.5294e+04   3.30e-24
  4.6475e+04   3.19e-24
  4.7688e+04   3.07e-24
  4.8931e+04   2.96e-24
  5.0208e+04   2.85e-24
  5.1517e+04   2.75e-24
  5.2861e+04   2.65e-24
  5.4240e+04   2.55e-24
  5.5654e+04   2.46e-24
  5.7106e+04   2.36e-24
  5.8596e+04   2.28e-24
  6.0124e+04   2.19e-24
  6.1692e+04   2.11e-24
  6.3301e+04   2.03e-24
  6.4952e+04   1.95e-24
  6.6647e+04   1.87e-24
  6.8385e+04   1.80e-24
  7.0169e+04   1.73e-24
  7.1999e+04   1.66e-24
  7.3877e+04   1.60e-24
  7.5804e+04   1.53e-24
  7.7781e+04   1.47e-24
  7.9810e+04   1.41e-24
  8.1891e+04   1.36e-24
  8.4027e+04   1.30e-24
  8.6219e+04   1.25e-24
  8.8468e+04   1.20e-24
  9.0775e+04   1.15e-24
  9.3143e+04   1.10e-24
  9.5572e+04   1.05e-24
  9.8065e+04   1.01e-24
  1.0062e+05   9.68e-25
  1.0325e+05   9.27e-25
  1.0594e+05   8.87e-25
  1.0870e+05   8.49e-25
  1.1154e+05   8.13e-25
  1.1445e+05   7.78e-25
  1.1743e+05   7.44e-25
  1.2050e+05   7.11e-25
  1.2364e+05   6.80e-25
  1.2686e+05   6.49e-25
  1.3017e+05   6.20e-25
  1.3357e+05   5.92e-25
  1.3705e+05   5.65e-25
  1.4063e+05   5.39e-25
  1.4429e+05   5.15e-25
  1.4806e+05   4.91e-25
  1.5192e+05   4.68e-25
  1.5588e+05   4.46e-25
  1.5995e+05   4.25e-25
  1.6412e+05   4.05e-25
  1.6840e+05   3.85e-25
  1.7279e+05   3.67e-25
  1.7730e+05   3.49e-25
  1.8193e+05   3.32e-25
  1.8667e+05   3.16e-25
  1.9154e+05   3.00e-25
  1.9654e+05   2.85e-25
  2.0166e+05   2.71e-25
  2.0692e+05   2.57e-25
  2.1232e+05   2.44e-25
  2.1786e+05   2.31e-25
  2.2354e+05   2.20e-25
  2.2937e+05   2.08e-25
  2.3535e+05   1.97e-25
  2.4149e+05   1.87e-25
  2.4779e+05   1.77e-25
  2.5425e+05   1.67e-25
  2.6088e+05   1.58e-25
  2.6769e+05   1.49e-25
  2.7467e+05   1.41e-25
  2.8184e+05   1.33e-25
  2.8919e+05   1.26e-25
  2.9673e+05   1.19e-25
  3.0447e+05   1.12e-25
  3.1241e+05   1.06e-25
  3.2056e+05   9.94e-26
  3.2892e+05   9.36e-26
  3.3750e+05   8.80e-26
  3.4630e+05   8.28e-26
  3.5533e+05   7.79e-26
  3.6460e+05   7.31e-26
  3.7411e+05   6.86e-26
  3.8387e+05   6.44e-26
  3.9388e+05   6.05e-26
  4.0416e+05   5.67e-26
  4.1470e+05   5.31e-26
  4.2551e+05   4.96e-26
  4.3661e+05   4.65e-26
  4.4800e+05   4.35e-26
  4.5969e+05   4.07e-26
  4.7168e+05   3.80e-26
  4.8398e+05   3.55e-26
  4.9660e+05   3.31e-26
  5.0956e+05   3.09e-26
  5.2285e+05   2.87e-26
  5.3648e+05   2.67e-26
  5.5048e+05   2.49e-26
  5.6483e+05   2.32e-26
  5.7957e+05   2.16e-26
  5.9468e+05   2.00e-26
  6.1020e+05   1.86e-26
  6.2611e+05   1.73e-26
  6.4244e+05   1.60e-26
  6.5920e+05   1.48e-26
  6.7639e+05   1.37e-26
  6.9403e+05   1.27e-26
  7.1214e+05   1.18e-26
  7.3071e+05   1.09e-26
  7.4977e+05   1.01e-26
  7.6933e+05   9.33e-27
  7.8939e+05   8.63e-27
  8.0998e+05   7.98e-27
  8.3111e+05   7.35e-27
  8.5279e+05   6.77e-27
  8.7503e+05   6.26e-27
  8.9785e+05   5.78e-27
  9.2127e+05   5.32e-27
  9.4530e+05   4.89e-27
  9.6996e+05   4.51e-27
  9.9526e+05   4.15e-27
  1.0212e+06   3.82e-27
  1.0479e+06   3.51e-27
  1.0752e+06   3.22e-27
  1.1032e+06   2.97e-27
  1.1320e+06   2.73e-27
  1.1615e+06   2.51e-27
  1.1918e+06   2.29e-27
  1.2229e+06   2.11e-27
  1.2548e+06   1.94e-27
  1.2875e+06   1.78e-27
  1.3211e+06   1.63e-27
  1.3556e+06   1.50e-27
  1.3909e+06   1.38e-27
  1.4272e+06   1.27e-27
  1.4644e+06   1.16e-27
  1.5026e+06   1.06e-27
  1.5418e+06   9.79e-28
  1.5820e+06   9.02e-28
  1.6233e+06   8.29e-28
  1.6657e+06   7.60e-28
  1.7091e+06   6.98e-28
  1.7537e+06   6.45e-28
  1.7994e+06   5.95e-28
  1.8464e+06   5.47e-28
  1.8945e+06   5.02e-28
  1.9439e+06   4.66e-28
  1.9946e+06   4.32e-28
  2.0467e+06   4.01e-28
  2.1000e+06   3.71e-28
  2.1548e+06   3.44e-28
  2.2110e+06   3.22e-28
  2.2687e+06   3.01e-28
  2.3279e+06   2.81e-28
  2.3886e+06   2.62e-28
  2.4509e+06   2.48e-28
  2.5148e+06   2.34e-28
  2.5804e+06   2.21e-28
  2.6477e+06   2.09e-28
  2.7168e+06   1.99e-28
  2.7876e+06   1.90e-28
  2.8603e+06   1.82e-28
  2.9349e+06   1.74e-28
  3.0115e+06   1.67e-28
  3.0900e+06   1.63e-28
  3.1706e+06   1.59e-28
  3.2533e+06   1.56e-28
  3.3382e+06   1.52e-28
  3.4253e+06   1.51e-28
  3.5146e+06   1.51e-28
  3.6063e+06   1.51e-28
  3.7003e+06   1.51e-28
  3.7969e+06   1.51e-28
  3.8959e+06   1.59e-28
  3.9975e+06   1.66e-28
  4.1018e+06   1.72e-28
  4.2088e+06   1.78e-28
  4.3185e+06   1.92e-28
  4.4312e+06   2.12e-28
  4.5467e+06   2.29e-28
  4.6653e+06   2.46e-28
  4.7870e+06   2.55e-28
  4.9119e+06   2.09e-28
  5.0400e+06   1.67e-28
