#  E [GeV]   # per interaction  [GeV^{-1}]
  3.0000e+01   1.41e+00
  3.1232e+01   1.35e+00
  3.2514e+01   1.28e+00
  3.3849e+01   1.22e+00
  3.5238e+01   1.17e+00
  3.6685e+01   1.11e+00
  3.8191e+01   1.06e+00
  3.9759e+01   1.01e+00
  4.1391e+01   9.64e-01
  4.3090e+01   9.18e-01
  4.4859e+01   8.75e-01
  4.6701e+01   8.33e-01
  4.8618e+01   7.93e-01
  5.0614e+01   7.55e-01
  5.2692e+01   7.19e-01
  5.4855e+01   6.85e-01
  5.7107e+01   6.51e-01
  5.9451e+01   6.20e-01
  6.1892e+01   5.90e-01
  6.4433e+01   5.61e-01
  6.7078e+01   5.33e-01
  6.9832e+01   5.07e-01
  7.2699e+01   4.82e-01
  7.5683e+01   4.58e-01
  7.8790e+01   4.35e-01
  8.2025e+01   4.13e-01
  8.5392e+01   3.93e-01
  8.8898e+01   3.73e-01
  9.2547e+01   3.54e-01
  9.6347e+01   3.36e-01
  1.0030e+02   3.19e-01
  1.0442e+02   3.03e-01
  1.0871e+02   2.87e-01
  1.1317e+02   2.72e-01
  1.1782e+02   2.58e-01
  1.2265e+02   2.45e-01
  1.2769e+02   2.32e-01
  1.3293e+02   2.20e-01
  1.3839e+02   2.08e-01
  1.4407e+02   1.97e-01
  1.4998e+02   1.87e-01
  1.5614e+02   1.77e-01
  1.6255e+02   1.68e-01
  1.6922e+02   1.59e-01
  1.7617e+02   1.50e-01
  1.8340e+02   1.42e-01
  1.9093e+02   1.34e-01
  1.9877e+02   1.27e-01
  2.0693e+02   1.20e-01
  2.1543e+02   1.13e-01
  2.2427e+02   1.07e-01
  2.3348e+02   1.01e-01
  2.4306e+02   9.51e-02
  2.5304e+02   8.98e-02
  2.6343e+02   8.46e-02
  2.7424e+02   7.98e-02
  2.8550e+02   7.52e-02
  2.9722e+02   7.08e-02
  3.0942e+02   6.66e-02
  3.2213e+02   6.27e-02
  3.3535e+02   5.90e-02
  3.4912e+02   5.54e-02
  3.6345e+02   5.21e-02
  3.7837e+02   4.89e-02
  3.9390e+02   4.59e-02
  4.1008e+02   4.31e-02
  4.2691e+02   4.04e-02
  4.4444e+02   3.79e-02
  4.6268e+02   3.55e-02
  4.8168e+02   3.33e-02
  5.0145e+02   3.11e-02
  5.2204e+02   2.91e-02
  5.4347e+02   2.72e-02
  5.6578e+02   2.54e-02
  5.8901e+02   2.37e-02
  6.1319e+02   2.22e-02
  6.3836e+02   2.07e-02
  6.6457e+02   1.93e-02
  6.9185e+02   1.80e-02
  7.2025e+02   1.67e-02
  7.4982e+02   1.56e-02
  7.8061e+02   1.45e-02
  8.1265e+02   1.35e-02
  8.4601e+02   1.25e-02
  8.8075e+02   1.16e-02
  9.1690e+02   1.08e-02
  9.5455e+02   1.00e-02
  9.9373e+02   9.30e-03
  1.0345e+03   8.63e-03
  1.0770e+03   8.00e-03
  1.1212e+03   7.42e-03
  1.1672e+03   6.88e-03
  1.2152e+03   6.37e-03
  1.2650e+03   5.90e-03
  1.3170e+03   5.46e-03
  1.3711e+03   5.05e-03
  1.4273e+03   4.67e-03
  1.4859e+03   4.32e-03
  1.5469e+03   3.99e-03
  1.6104e+03   3.69e-03
  1.6766e+03   3.40e-03
  1.7454e+03   3.14e-03
  1.8170e+03   2.90e-03
  1.8916e+03   2.67e-03
  1.9693e+03   2.46e-03
  2.0501e+03   2.27e-03
  2.1343e+03   2.09e-03
  2.2219e+03   1.92e-03
  2.3131e+03   1.76e-03
  2.4081e+03   1.62e-03
  2.5070e+03   1.48e-03
  2.6099e+03   1.36e-03
  2.7170e+03   1.24e-03
  2.8286e+03   1.14e-03
  2.9447e+03   1.04e-03
  3.0656e+03   9.49e-04
  3.1914e+03   8.66e-04
  3.3225e+03   7.90e-04
  3.4589e+03   7.18e-04
  3.6008e+03   6.53e-04
  3.7487e+03   5.93e-04
  3.9026e+03   5.37e-04
  4.0628e+03   4.87e-04
  4.2296e+03   4.40e-04
  4.4032e+03   3.97e-04
  4.5840e+03   3.58e-04
  4.7722e+03   3.22e-04
  4.9681e+03   2.89e-04
  5.1720e+03   2.59e-04
  5.3844e+03   2.32e-04
  5.6054e+03   2.07e-04
  5.8355e+03   1.85e-04
  6.0751e+03   1.64e-04
  6.3245e+03   1.46e-04
  6.5841e+03   1.29e-04
  6.8544e+03   1.14e-04
  7.1358e+03   1.01e-04
  7.4288e+03   8.86e-05
  7.7338e+03   7.75e-05
  8.0513e+03   6.80e-05
  8.3818e+03   5.93e-05
  8.7259e+03   5.14e-05
  9.0841e+03   4.47e-05
  9.4571e+03   3.86e-05
  9.8453e+03   3.30e-05
  1.0249e+04   2.84e-05
  1.0670e+04   2.42e-05
  1.1108e+04   2.05e-05
  1.1564e+04   1.74e-05
  1.2039e+04   1.46e-05
  1.2533e+04   1.22e-05
  1.3048e+04   1.02e-05
  1.3584e+04   8.39e-06
  1.4141e+04   6.88e-06
  1.4722e+04   5.61e-06
  1.5326e+04   4.50e-06
  1.5955e+04   3.60e-06
  1.6610e+04   2.85e-06
  1.7292e+04   2.20e-06
  1.8002e+04   1.70e-06
  1.8741e+04   1.28e-06
  1.9511e+04   9.44e-07
  2.0312e+04   6.91e-07
  2.1145e+04   4.90e-07
  2.2013e+04   3.35e-07
  2.2917e+04   2.26e-07
  2.3858e+04   1.45e-07
  2.4837e+04   8.86e-08
  2.5857e+04   5.21e-08
  2.6919e+04   2.84e-08
  2.8024e+04   1.43e-08
  2.9174e+04   6.68e-09
  3.0372e+04   2.75e-09
  3.1619e+04   9.91e-10
  3.2917e+04   3.04e-10
  3.4268e+04   7.51e-11
  3.5675e+04   1.44e-11
  3.7140e+04   2.02e-12
  3.8664e+04   1.85e-13
  4.0252e+04   1.02e-14
  4.1904e+04   2.88e-16
  4.3624e+04   3.39e-18
  4.5415e+04   1.30e-20
  4.7280e+04   1.11e-23
  4.9221e+04   1.29e-27
  5.1241e+04   1.05e-32
  5.3345e+04   2.24e-39
  5.5535e+04   2.33e-47
  5.7815e+04   2.13e-47
  6.0188e+04   1.94e-47
  6.2659e+04   1.77e-47
  6.5232e+04   1.62e-47
  6.7910e+04   1.49e-47
  7.0698e+04   1.36e-47
  7.3600e+04   1.23e-47
  7.6621e+04   1.12e-47
  7.9767e+04   1.01e-47
  8.3042e+04   9.03e-48
  8.6451e+04   8.03e-48
  9.0000e+04   7.24e-48
