#  E [GeV]   # per interaction  [GeV^{-1}]
  3.0000e+01   4.74e-01
  3.1033e+01   4.57e-01
  3.2102e+01   4.41e-01
  3.3207e+01   4.25e-01
  3.4350e+01   4.10e-01
  3.5533e+01   3.95e-01
  3.6757e+01   3.81e-01
  3.8022e+01   3.67e-01
  3.9332e+01   3.54e-01
  4.0686e+01   3.41e-01
  4.2087e+01   3.28e-01
  4.3536e+01   3.16e-01
  4.5035e+01   3.05e-01
  4.6586e+01   2.93e-01
  4.8190e+01   2.82e-01
  4.9850e+01   2.72e-01
  5.1566e+01   2.62e-01
  5.3342e+01   2.52e-01
  5.5178e+01   2.42e-01
  5.7078e+01   2.33e-01
  5.9044e+01   2.24e-01
  6.1077e+01   2.16e-01
  6.3180e+01   2.08e-01
  6.5356e+01   2.00e-01
  6.7606e+01   1.92e-01
  6.9934e+01   1.85e-01
  7.2342e+01   1.77e-01
  7.4833e+01   1.70e-01
  7.7410e+01   1.64e-01
  8.0075e+01   1.57e-01
  8.2833e+01   1.51e-01
  8.5685e+01   1.45e-01
  8.8635e+01   1.39e-01
  9.1687e+01   1.33e-01
  9.4844e+01   1.28e-01
  9.8110e+01   1.23e-01
  1.0149e+02   1.18e-01
  1.0498e+02   1.13e-01
  1.0860e+02   1.08e-01
  1.1234e+02   1.04e-01
  1.1621e+02   9.92e-02
  1.2021e+02   9.50e-02
  1.2435e+02   9.09e-02
  1.2863e+02   8.70e-02
  1.3306e+02   8.32e-02
  1.3764e+02   7.96e-02
  1.4238e+02   7.61e-02
  1.4728e+02   7.28e-02
  1.5235e+02   6.96e-02
  1.5760e+02   6.65e-02
  1.6302e+02   6.35e-02
  1.6864e+02   6.06e-02
  1.7445e+02   5.78e-02
  1.8045e+02   5.51e-02
  1.8667e+02   5.26e-02
  1.9309e+02   5.01e-02
  1.9974e+02   4.78e-02
  2.0662e+02   4.55e-02
  2.1373e+02   4.33e-02
  2.2109e+02   4.13e-02
  2.2871e+02   3.93e-02
  2.3658e+02   3.73e-02
  2.4473e+02   3.55e-02
  2.5316e+02   3.38e-02
  2.6187e+02   3.21e-02
  2.7089e+02   3.05e-02
  2.8022e+02   2.89e-02
  2.8987e+02   2.75e-02
  2.9985e+02   2.60e-02
  3.1017e+02   2.47e-02
  3.2085e+02   2.34e-02
  3.3190e+02   2.22e-02
  3.4333e+02   2.10e-02
  3.5515e+02   1.99e-02
  3.6738e+02   1.88e-02
  3.8003e+02   1.78e-02
  3.9312e+02   1.68e-02
  4.0665e+02   1.59e-02
  4.2066e+02   1.50e-02
  4.3514e+02   1.42e-02
  4.5013e+02   1.34e-02
  4.6562e+02   1.27e-02
  4.8166e+02   1.19e-02
  4.9824e+02   1.13e-02
  5.1540e+02   1.06e-02
  5.3315e+02   9.99e-03
  5.5150e+02   9.41e-03
  5.7050e+02   8.86e-03
  5.9014e+02   8.34e-03
  6.1046e+02   7.84e-03
  6.3148e+02   7.37e-03
  6.5322e+02   6.93e-03
  6.7572e+02   6.50e-03
  6.9898e+02   6.10e-03
  7.2305e+02   5.73e-03
  7.4795e+02   5.37e-03
  7.7371e+02   5.03e-03
  8.0035e+02   4.71e-03
  8.2791e+02   4.42e-03
  8.5641e+02   4.13e-03
  8.8590e+02   3.86e-03
  9.1641e+02   3.62e-03
  9.4796e+02   3.38e-03
  9.8061e+02   3.16e-03
  1.0144e+03   2.95e-03
  1.0493e+03   2.75e-03
  1.0854e+03   2.57e-03
  1.1228e+03   2.39e-03
  1.1615e+03   2.23e-03
  1.2015e+03   2.08e-03
  1.2428e+03   1.93e-03
  1.2856e+03   1.80e-03
  1.3299e+03   1.67e-03
  1.3757e+03   1.56e-03
  1.4231e+03   1.44e-03
  1.4721e+03   1.34e-03
  1.5228e+03   1.24e-03
  1.5752e+03   1.15e-03
  1.6294e+03   1.07e-03
  1.6855e+03   9.92e-04
  1.7436e+03   9.17e-04
  1.8036e+03   8.49e-04
  1.8657e+03   7.86e-04
  1.9300e+03   7.25e-04
  1.9964e+03   6.69e-04
  2.0652e+03   6.18e-04
  2.1363e+03   5.70e-04
  2.2098e+03   5.24e-04
  2.2859e+03   4.83e-04
  2.3646e+03   4.45e-04
  2.4461e+03   4.09e-04
  2.5303e+03   3.76e-04
  2.6174e+03   3.45e-04
  2.7075e+03   3.16e-04
  2.8008e+03   2.89e-04
  2.8972e+03   2.65e-04
  2.9970e+03   2.43e-04
  3.1002e+03   2.21e-04
  3.2069e+03   2.02e-04
  3.3173e+03   1.85e-04
  3.4316e+03   1.68e-04
  3.5497e+03   1.53e-04
  3.6720e+03   1.39e-04
  3.7984e+03   1.27e-04
  3.9292e+03   1.14e-04
  4.0645e+03   1.04e-04
  4.2044e+03   9.43e-05
  4.3492e+03   8.51e-05
  4.4990e+03   7.68e-05
  4.6539e+03   6.95e-05
  4.8141e+03   6.26e-05
  4.9799e+03   5.61e-05
  5.1514e+03   5.06e-05
  5.3288e+03   4.54e-05
  5.5123e+03   4.05e-05
  5.7021e+03   3.62e-05
  5.8984e+03   3.24e-05
  6.1015e+03   2.89e-05
  6.3116e+03   2.56e-05
  6.5289e+03   2.28e-05
  6.7538e+03   2.03e-05
  6.9863e+03   1.78e-05
  7.2269e+03   1.58e-05
  7.4757e+03   1.40e-05
  7.7331e+03   1.23e-05
  7.9994e+03   1.08e-05
  8.2749e+03   9.49e-06
  8.5598e+03   8.29e-06
  8.8546e+03   7.18e-06
  9.1594e+03   6.31e-06
  9.4748e+03   5.50e-06
  9.8011e+03   4.74e-06
  1.0139e+04   4.10e-06
  1.0488e+04   3.56e-06
  1.0849e+04   3.05e-06
  1.1222e+04   2.60e-06
  1.1609e+04   2.24e-06
  1.2009e+04   1.91e-06
  1.2422e+04   1.60e-06
  1.2850e+04   1.37e-06
  1.3292e+04   1.17e-06
  1.3750e+04   9.75e-07
  1.4223e+04   8.16e-07
  1.4713e+04   6.91e-07
  1.5220e+04   5.76e-07
  1.5744e+04   4.71e-07
  1.6286e+04   3.97e-07
  1.6847e+04   3.29e-07
  1.7427e+04   2.67e-07
  1.8027e+04   2.19e-07
  1.8648e+04   1.80e-07
  1.9290e+04   1.45e-07
  1.9954e+04   1.14e-07
  2.0641e+04   9.22e-08
  2.1352e+04   7.24e-08
  2.2087e+04   5.49e-08
  2.2848e+04   4.22e-08
  2.3634e+04   3.16e-08
  2.4448e+04   2.25e-08
  2.5290e+04   1.57e-08
