#  E [MeV]   Flux [# cm^{-2} s^{-1}  MeV^{-1}]
  3.0000e+04   1.35e-20
  3.1123e+04   1.30e-20
  3.2288e+04   1.25e-20
  3.3497e+04   1.20e-20
  3.4751e+04   1.15e-20
  3.6051e+04   1.10e-20
  3.7401e+04   1.06e-20
  3.8801e+04   1.01e-20
  4.0253e+04   9.72e-21
  4.1760e+04   9.32e-21
  4.3324e+04   8.94e-21
  4.4945e+04   8.58e-21
  4.6628e+04   8.22e-21
  4.8373e+04   7.89e-21
  5.0184e+04   7.56e-21
  5.2063e+04   7.25e-21
  5.4011e+04   6.95e-21
  5.6033e+04   6.66e-21
  5.8131e+04   6.38e-21
  6.0307e+04   6.11e-21
  6.2564e+04   5.85e-21
  6.4906e+04   5.61e-21
  6.7336e+04   5.37e-21
  6.9857e+04   5.14e-21
  7.2472e+04   4.92e-21
  7.5184e+04   4.71e-21
  7.7999e+04   4.51e-21
  8.0919e+04   4.31e-21
  8.3948e+04   4.13e-21
  8.7090e+04   3.95e-21
  9.0350e+04   3.77e-21
  9.3732e+04   3.61e-21
  9.7241e+04   3.45e-21
  1.0088e+05   3.29e-21
  1.0466e+05   3.15e-21
  1.0858e+05   3.01e-21
  1.1264e+05   2.87e-21
  1.1686e+05   2.74e-21
  1.2123e+05   2.61e-21
  1.2577e+05   2.49e-21
  1.3048e+05   2.38e-21
  1.3536e+05   2.27e-21
  1.4043e+05   2.16e-21
  1.4568e+05   2.06e-21
  1.5114e+05   1.96e-21
  1.5680e+05   1.87e-21
  1.6266e+05   1.77e-21
  1.6875e+05   1.69e-21
  1.7507e+05   1.60e-21
  1.8162e+05   1.52e-21
  1.8842e+05   1.45e-21
  1.9548e+05   1.37e-21
  2.0279e+05   1.30e-21
  2.1039e+05   1.23e-21
  2.1826e+05   1.17e-21
  2.2643e+05   1.11e-21
  2.3491e+05   1.05e-21
  2.4370e+05   9.92e-22
  2.5282e+05   9.38e-22
  2.6229e+05   8.86e-22
  2.7211e+05   8.36e-22
  2.8229e+05   7.88e-22
  2.9286e+05   7.42e-22
  3.0382e+05   6.99e-22
  3.1519e+05   6.57e-22
  3.2699e+05   6.18e-22
  3.3923e+05   5.80e-22
  3.5193e+05   5.44e-22
  3.6511e+05   5.10e-22
  3.7877e+05   4.78e-22
  3.9295e+05   4.47e-22
  4.0766e+05   4.18e-22
  4.2292e+05   3.91e-22
  4.3875e+05   3.65e-22
  4.5518e+05   3.40e-22
  4.7222e+05   3.17e-22
  4.8989e+05   2.95e-22
  5.0823e+05   2.75e-22
  5.2726e+05   2.55e-22
  5.4699e+05   2.37e-22
  5.6747e+05   2.20e-22
  5.8871e+05   2.04e-22
  6.1075e+05   1.89e-22
  6.3361e+05   1.75e-22
  6.5733e+05   1.62e-22
  6.8194e+05   1.50e-22
  7.0746e+05   1.39e-22
  7.3395e+05   1.28e-22
  7.6142e+05   1.18e-22
  7.8992e+05   1.09e-22
  8.1949e+05   1.01e-22
  8.5017e+05   9.29e-23
  8.8199e+05   8.57e-23
  9.1501e+05   7.91e-23
  9.4926e+05   7.28e-23
  9.8479e+05   6.72e-23
  1.0217e+06   6.19e-23
  1.0599e+06   5.70e-23
  1.0996e+06   5.25e-23
  1.1407e+06   4.83e-23
  1.1834e+06   4.45e-23
  1.2277e+06   4.10e-23
  1.2737e+06   3.77e-23
  1.3214e+06   3.47e-23
  1.3708e+06   3.19e-23
  1.4222e+06   2.94e-23
  1.4754e+06   2.70e-23
  1.5306e+06   2.49e-23
  1.5879e+06   2.29e-23
  1.6474e+06   2.10e-23
  1.7090e+06   1.94e-23
  1.7730e+06   1.78e-23
  1.8394e+06   1.64e-23
  1.9082e+06   1.50e-23
  1.9797e+06   1.38e-23
  2.0538e+06   1.27e-23
  2.1306e+06   1.16e-23
  2.2104e+06   1.07e-23
  2.2931e+06   9.78e-24
  2.3790e+06   8.95e-24
  2.4680e+06   8.21e-24
  2.5604e+06   7.51e-24
  2.6563e+06   6.86e-24
  2.7557e+06   6.27e-24
  2.8589e+06   5.73e-24
  2.9659e+06   5.22e-24
  3.0769e+06   4.76e-24
  3.1921e+06   4.33e-24
  3.3116e+06   3.93e-24
  3.4355e+06   3.57e-24
  3.5641e+06   3.24e-24
  3.6976e+06   2.93e-24
  3.8360e+06   2.65e-24
  3.9796e+06   2.40e-24
  4.1285e+06   2.16e-24
  4.2831e+06   1.94e-24
  4.4434e+06   1.74e-24
  4.6097e+06   1.56e-24
  4.7823e+06   1.40e-24
  4.9613e+06   1.25e-24
  5.1470e+06   1.11e-24
  5.3397e+06   9.84e-25
  5.5396e+06   8.75e-25
  5.7470e+06   7.73e-25
  5.9621e+06   6.79e-25
  6.1853e+06   5.99e-25
  6.4168e+06   5.25e-25
  6.6570e+06   4.57e-25
  6.9062e+06   3.98e-25
  7.1647e+06   3.46e-25
  7.4329e+06   2.98e-25
  7.7112e+06   2.56e-25
  7.9998e+06   2.20e-25
  8.2993e+06   1.87e-25
  8.6100e+06   1.58e-25
  8.9323e+06   1.34e-25
  9.2666e+06   1.12e-25
  9.6135e+06   9.30e-26
  9.9734e+06   7.71e-26
  1.0347e+07   6.32e-26
  1.0734e+07   5.13e-26
  1.1136e+07   4.16e-26
  1.1553e+07   3.32e-26
  1.1985e+07   2.62e-26
  1.2434e+07   2.06e-26
  1.2899e+07   1.59e-26
  1.3382e+07   1.21e-26
  1.3883e+07   9.10e-27
  1.4403e+07   6.72e-27
  1.4942e+07   4.84e-27
  1.5501e+07   3.45e-27
  1.6081e+07   2.39e-27
  1.6683e+07   1.61e-27
  1.7308e+07   1.06e-27
  1.7956e+07   6.71e-28
  1.8628e+07   4.08e-28
  1.9325e+07   2.39e-28
  2.0049e+07   1.33e-28
  2.0799e+07   6.94e-29
  2.1578e+07   3.40e-29
  2.2386e+07   1.55e-29
  2.3224e+07   6.39e-30
  2.4093e+07   2.38e-30
  2.4995e+07   7.83e-31
  2.5930e+07   2.22e-31
  2.6901e+07   5.29e-32
  2.7908e+07   1.04e-32
  2.8953e+07   1.59e-33
  3.0037e+07   1.81e-34
  3.1161e+07   1.49e-35
  3.2327e+07   7.91e-37
  3.3537e+07   2.48e-38
  3.4793e+07   4.48e-40
  3.6095e+07   3.63e-42
  3.7446e+07   1.11e-44
  3.8848e+07   1.26e-47
  4.0302e+07   3.06e-51
  4.1811e+07   1.08e-55
  4.3376e+07   3.74e-61
  4.5000e+07   2.88e-65
