#  E [GeV]   # per interaction  [GeV^{-1}]
  3.0000e+01   2.14e-01
  3.0589e+01   2.07e-01
  3.1190e+01   2.00e-01
  3.1803e+01   1.93e-01
  3.2428e+01   1.86e-01
  3.3065e+01   1.79e-01
  3.3714e+01   1.72e-01
  3.4376e+01   1.66e-01
  3.5052e+01   1.60e-01
  3.5740e+01   1.54e-01
  3.6442e+01   1.49e-01
  3.7158e+01   1.43e-01
  3.7888e+01   1.38e-01
  3.8632e+01   1.33e-01
  3.9391e+01   1.28e-01
  4.0165e+01   1.23e-01
  4.0954e+01   1.18e-01
  4.1758e+01   1.13e-01
  4.2579e+01   1.09e-01
  4.3415e+01   1.05e-01
  4.4268e+01   1.01e-01
  4.5138e+01   9.68e-02
  4.6024e+01   9.30e-02
  4.6928e+01   8.93e-02
  4.7850e+01   8.57e-02
  4.8790e+01   8.23e-02
  4.9749e+01   7.90e-02
  5.0726e+01   7.58e-02
  5.1722e+01   7.27e-02
  5.2738e+01   6.97e-02
  5.3774e+01   6.68e-02
  5.4831e+01   6.41e-02
  5.5908e+01   6.14e-02
  5.7006e+01   5.89e-02
  5.8126e+01   5.64e-02
  5.9268e+01   5.40e-02
  6.0432e+01   5.16e-02
  6.1619e+01   4.94e-02
  6.2829e+01   4.73e-02
  6.4064e+01   4.53e-02
  6.5322e+01   4.33e-02
  6.6605e+01   4.14e-02
  6.7913e+01   3.95e-02
  6.9248e+01   3.78e-02
  7.0608e+01   3.61e-02
  7.1995e+01   3.45e-02
  7.3409e+01   3.29e-02
  7.4851e+01   3.13e-02
  7.6321e+01   2.99e-02
  7.7821e+01   2.85e-02
  7.9349e+01   2.72e-02
  8.0908e+01   2.59e-02
  8.2497e+01   2.47e-02
  8.4118e+01   2.35e-02
  8.5770e+01   2.23e-02
  8.7455e+01   2.13e-02
  8.9173e+01   2.03e-02
  9.0925e+01   1.93e-02
  9.2711e+01   1.83e-02
  9.4532e+01   1.74e-02
  9.6389e+01   1.65e-02
  9.8283e+01   1.57e-02
  1.0021e+02   1.49e-02
  1.0218e+02   1.42e-02
  1.0419e+02   1.34e-02
  1.0624e+02   1.27e-02
  1.0832e+02   1.21e-02
  1.1045e+02   1.15e-02
  1.1262e+02   1.09e-02
  1.1483e+02   1.03e-02
  1.1709e+02   9.74e-03
  1.1939e+02   9.20e-03
  1.2173e+02   8.71e-03
  1.2412e+02   8.25e-03
  1.2656e+02   7.81e-03
  1.2905e+02   7.38e-03
  1.3158e+02   6.96e-03
  1.3417e+02   6.56e-03
  1.3680e+02   6.20e-03
  1.3949e+02   5.86e-03
  1.4223e+02   5.53e-03
  1.4503e+02   5.21e-03
  1.4787e+02   4.90e-03
  1.5078e+02   4.61e-03
  1.5374e+02   4.34e-03
  1.5676e+02   4.09e-03
  1.5984e+02   3.86e-03
  1.6298e+02   3.62e-03
  1.6618e+02   3.40e-03
  1.6945e+02   3.18e-03
  1.7278e+02   3.00e-03
  1.7617e+02   2.82e-03
  1.7963e+02   2.65e-03
  1.8316e+02   2.48e-03
  1.8676e+02   2.32e-03
  1.9042e+02   2.17e-03
  1.9417e+02   2.04e-03
  1.9798e+02   1.91e-03
  2.0187e+02   1.79e-03
  2.0583e+02   1.67e-03
  2.0988e+02   1.56e-03
  2.1400e+02   1.45e-03
  2.1820e+02   1.36e-03
  2.2249e+02   1.28e-03
  2.2686e+02   1.19e-03
  2.3132e+02   1.11e-03
  2.3586e+02   1.03e-03
  2.4049e+02   9.58e-04
  2.4522e+02   8.96e-04
  2.5004e+02   8.36e-04
  2.5495e+02   7.79e-04
  2.5996e+02   7.24e-04
  2.6506e+02   6.71e-04
  2.7027e+02   6.20e-04
  2.7558e+02   5.79e-04
  2.8099e+02   5.38e-04
  2.8651e+02   5.00e-04
  2.9214e+02   4.62e-04
  2.9788e+02   4.27e-04
  3.0373e+02   3.93e-04
  3.0970e+02   3.66e-04
  3.1578e+02   3.40e-04
  3.2198e+02   3.14e-04
  3.2831e+02   2.90e-04
  3.3476e+02   2.66e-04
  3.4133e+02   2.45e-04
  3.4804e+02   2.27e-04
  3.5487e+02   2.10e-04
  3.6185e+02   1.94e-04
  3.6895e+02   1.78e-04
  3.7620e+02   1.63e-04
  3.8359e+02   1.50e-04
  3.9113e+02   1.39e-04
  3.9881e+02   1.28e-04
  4.0664e+02   1.18e-04
  4.1463e+02   1.08e-04
  4.2278e+02   9.85e-05
  4.3108e+02   9.02e-05
  4.3955e+02   8.33e-05
  4.4818e+02   7.67e-05
  4.5699e+02   7.04e-05
  4.6596e+02   6.44e-05
  4.7512e+02   5.86e-05
  4.8445e+02   5.36e-05
  4.9397e+02   4.95e-05
  5.0367e+02   4.55e-05
  5.1356e+02   4.17e-05
  5.2365e+02   3.80e-05
  5.3394e+02   3.45e-05
  5.4443e+02   3.16e-05
  5.5512e+02   2.92e-05
  5.6603e+02   2.68e-05
  5.7715e+02   2.45e-05
  5.8848e+02   2.24e-05
  6.0004e+02   2.03e-05
  6.1183e+02   1.87e-05
  6.2385e+02   1.72e-05
  6.3610e+02   1.59e-05
  6.4860e+02   1.46e-05
  6.6134e+02   1.33e-05
  6.7433e+02   1.21e-05
  6.8758e+02   1.12e-05
  7.0108e+02   1.04e-05
  7.1486e+02   9.58e-06
  7.2890e+02   8.82e-06
  7.4322e+02   8.09e-06
  7.5782e+02   7.40e-06
  7.7270e+02   6.86e-06
  7.8788e+02   6.37e-06
  8.0336e+02   5.90e-06
  8.1914e+02   5.45e-06
  8.3523e+02   5.02e-06
  8.5164e+02   4.61e-06
  8.6837e+02   4.30e-06
  8.8542e+02   4.01e-06
  9.0282e+02   3.73e-06
  9.2055e+02   3.47e-06
  9.3863e+02   3.21e-06
  9.5707e+02   2.97e-06
  9.7587e+02   2.78e-06
  9.9504e+02   2.60e-06
  1.0146e+03   2.43e-06
  1.0345e+03   2.26e-06
  1.0548e+03   2.11e-06
  1.0756e+03   1.96e-06
  1.0967e+03   1.83e-06
  1.1182e+03   1.71e-06
  1.1402e+03   1.59e-06
  1.1626e+03   1.48e-06
  1.1854e+03   1.37e-06
  1.2087e+03   1.27e-06
  1.2325e+03   1.18e-06
  1.2567e+03   1.09e-06
  1.2814e+03   1.00e-06
  1.3065e+03   9.19e-07
  1.3322e+03   8.41e-07
  1.3584e+03   7.73e-07
  1.3851e+03   7.24e-07
  1.4123e+03   6.77e-07
  1.4400e+03   6.32e-07
