#  E [MeV]   Flux [# cm^{-2} s^{-1}  MeV^{-1}]
  3.0000e+04   1.43e-20
  3.1123e+04   1.37e-20
  3.2288e+04   1.32e-20
  3.3497e+04   1.27e-20
  3.4751e+04   1.22e-20
  3.6051e+04   1.17e-20
  3.7401e+04   1.13e-20
  3.8801e+04   1.08e-20
  4.0253e+04   1.04e-20
  4.1760e+04   1.00e-20
  4.3324e+04   9.61e-21
  4.4945e+04   9.23e-21
  4.6628e+04   8.87e-21
  4.8373e+04   8.52e-21
  5.0184e+04   8.18e-21
  5.2063e+04   7.85e-21
  5.4011e+04   7.54e-21
  5.6033e+04   7.24e-21
  5.8131e+04   6.95e-21
  6.0307e+04   6.67e-21
  6.2564e+04   6.40e-21
  6.4906e+04   6.14e-21
  6.7336e+04   5.89e-21
  6.9857e+04   5.65e-21
  7.2472e+04   5.41e-21
  7.5184e+04   5.19e-21
  7.7999e+04   4.97e-21
  8.0919e+04   4.76e-21
  8.3948e+04   4.56e-21
  8.7090e+04   4.37e-21
  9.0350e+04   4.18e-21
  9.3732e+04   4.00e-21
  9.7241e+04   3.83e-21
  1.0088e+05   3.66e-21
  1.0466e+05   3.50e-21
  1.0858e+05   3.35e-21
  1.1264e+05   3.20e-21
  1.1686e+05   3.06e-21
  1.2123e+05   2.92e-21
  1.2577e+05   2.79e-21
  1.3048e+05   2.66e-21
  1.3536e+05   2.53e-21
  1.4043e+05   2.41e-21
  1.4568e+05   2.30e-21
  1.5114e+05   2.19e-21
  1.5680e+05   2.08e-21
  1.6266e+05   1.98e-21
  1.6875e+05   1.88e-21
  1.7507e+05   1.79e-21
  1.8162e+05   1.69e-21
  1.8842e+05   1.61e-21
  1.9548e+05   1.52e-21
  2.0279e+05   1.44e-21
  2.1039e+05   1.36e-21
  2.1826e+05   1.29e-21
  2.2643e+05   1.22e-21
  2.3491e+05   1.15e-21
  2.4370e+05   1.08e-21
  2.5282e+05   1.02e-21
  2.6229e+05   9.59e-22
  2.7211e+05   9.01e-22
  2.8229e+05   8.45e-22
  2.9286e+05   7.92e-22
  3.0382e+05   7.42e-22
  3.1519e+05   6.93e-22
  3.2699e+05   6.48e-22
  3.3923e+05   6.04e-22
  3.5193e+05   5.63e-22
  3.6511e+05   5.24e-22
  3.7877e+05   4.86e-22
  3.9295e+05   4.51e-22
  4.0766e+05   4.18e-22
  4.2292e+05   3.87e-22
  4.3875e+05   3.58e-22
  4.5518e+05   3.30e-22
  4.7222e+05   3.05e-22
  4.8989e+05   2.81e-22
  5.0823e+05   2.58e-22
  5.2726e+05   2.37e-22
  5.4699e+05   2.18e-22
  5.6747e+05   1.99e-22
  5.8871e+05   1.83e-22
  6.1075e+05   1.67e-22
  6.3361e+05   1.53e-22
  6.5733e+05   1.39e-22
  6.8194e+05   1.27e-22
  7.0746e+05   1.16e-22
  7.3395e+05   1.06e-22
  7.6142e+05   9.63e-23
  7.8992e+05   8.77e-23
  8.1949e+05   7.98e-23
  8.5017e+05   7.27e-23
  8.8199e+05   6.61e-23
  9.1501e+05   6.01e-23
  9.4926e+05   5.47e-23
  9.8479e+05   4.97e-23
  1.0217e+06   4.52e-23
  1.0599e+06   4.10e-23
  1.0996e+06   3.73e-23
  1.1407e+06   3.39e-23
  1.1834e+06   3.08e-23
  1.2277e+06   2.80e-23
  1.2737e+06   2.54e-23
  1.3214e+06   2.31e-23
  1.3708e+06   2.10e-23
  1.4222e+06   1.91e-23
  1.4754e+06   1.73e-23
  1.5306e+06   1.58e-23
  1.5879e+06   1.43e-23
  1.6474e+06   1.30e-23
  1.7090e+06   1.18e-23
  1.7730e+06   1.08e-23
  1.8394e+06   9.76e-24
  1.9082e+06   8.87e-24
  1.9797e+06   8.05e-24
  2.0538e+06   7.29e-24
  2.1306e+06   6.62e-24
  2.2104e+06   6.00e-24
  2.2931e+06   5.42e-24
  2.3790e+06   4.91e-24
  2.4680e+06   4.44e-24
  2.5604e+06   4.00e-24
  2.6563e+06   3.61e-24
  2.7557e+06   3.25e-24
  2.8589e+06   2.92e-24
  2.9659e+06   2.62e-24
  3.0769e+06   2.35e-24
  3.1921e+06   2.11e-24
  3.3116e+06   1.88e-24
  3.4355e+06   1.68e-24
  3.5641e+06   1.49e-24
  3.6976e+06   1.33e-24
  3.8360e+06   1.18e-24
  3.9796e+06   1.04e-24
  4.1285e+06   9.15e-25
  4.2831e+06   8.06e-25
  4.4434e+06   7.05e-25
  4.6097e+06   6.14e-25
  4.7823e+06   5.36e-25
  4.9613e+06   4.65e-25
  5.1470e+06   4.00e-25
  5.3397e+06   3.45e-25
  5.5396e+06   2.96e-25
  5.7470e+06   2.51e-25
  5.9621e+06   2.14e-25
  6.1853e+06   1.81e-25
  6.4168e+06   1.51e-25
  6.6570e+06   1.27e-25
  6.9062e+06   1.05e-25
  7.1647e+06   8.64e-26
  7.4329e+06   7.08e-26
  7.7112e+06   5.76e-26
  7.9998e+06   4.62e-26
  8.2993e+06   3.68e-26
  8.6100e+06   2.92e-26
  8.9323e+06   2.27e-26
  9.2666e+06   1.75e-26
  9.6135e+06   1.34e-26
  9.9734e+06   1.01e-26
  1.0347e+07   7.44e-27
  1.0734e+07   5.46e-27
  1.1136e+07   3.91e-27
  1.1553e+07   2.73e-27
  1.1985e+07   1.89e-27
  1.2434e+07   1.27e-27
  1.2899e+07   8.25e-28
  1.3382e+07   5.29e-28
  1.3883e+07   3.27e-28
  1.4403e+07   1.93e-28
  1.4942e+07   1.11e-28
  1.5501e+07   6.13e-29
  1.6081e+07   3.18e-29
  1.6683e+07   1.58e-29
  1.7308e+07   7.37e-30
  1.7956e+07   3.18e-30
  1.8628e+07   1.28e-30
  1.9325e+07   4.71e-31
  2.0049e+07   1.55e-31
  2.0799e+07   4.59e-32
  2.1578e+07   1.20e-32
  2.2386e+07   2.68e-33
  2.3224e+07   5.01e-34
  2.4093e+07   7.83e-35
  2.4995e+07   9.62e-36
  2.5930e+07   8.98e-37
  2.6901e+07   6.28e-38
  2.7908e+07   3.02e-39
  2.8953e+07   9.35e-41
  3.0037e+07   1.79e-42
  3.1161e+07   1.86e-44
  3.2327e+07   9.30e-47
  3.3537e+07   2.02e-49
  3.4793e+07   1.55e-52
  3.6095e+07   3.37e-56
  3.7446e+07   1.61e-60
  3.8848e+07   1.19e-65
  4.0302e+07   2.67e-67
  4.1811e+07   2.49e-67
  4.3376e+07   2.34e-67
  4.5000e+07   2.19e-67
