#  E [MeV]   Flux [# cm^{-2} s^{-1}  MeV^{-1}]
  3.0000e+04   1.70e-20
  3.1123e+04   1.64e-20
  3.2288e+04   1.57e-20
  3.3497e+04   1.51e-20
  3.4751e+04   1.46e-20
  3.6051e+04   1.40e-20
  3.7401e+04   1.35e-20
  3.8801e+04   1.29e-20
  4.0253e+04   1.24e-20
  4.1760e+04   1.19e-20
  4.3324e+04   1.15e-20
  4.4945e+04   1.10e-20
  4.6628e+04   1.06e-20
  4.8373e+04   1.02e-20
  5.0184e+04   9.79e-21
  5.2063e+04   9.40e-21
  5.4011e+04   9.03e-21
  5.6033e+04   8.67e-21
  5.8131e+04   8.33e-21
  6.0307e+04   7.99e-21
  6.2564e+04   7.67e-21
  6.4906e+04   7.37e-21
  6.7336e+04   7.07e-21
  6.9857e+04   6.78e-21
  7.2472e+04   6.51e-21
  7.5184e+04   6.24e-21
  7.7999e+04   5.98e-21
  8.0919e+04   5.74e-21
  8.3948e+04   5.50e-21
  8.7090e+04   5.27e-21
  9.0350e+04   5.05e-21
  9.3732e+04   4.84e-21
  9.7241e+04   4.63e-21
  1.0088e+05   4.43e-21
  1.0466e+05   4.25e-21
  1.0858e+05   4.06e-21
  1.1264e+05   3.89e-21
  1.1686e+05   3.72e-21
  1.2123e+05   3.55e-21
  1.2577e+05   3.40e-21
  1.3048e+05   3.25e-21
  1.3536e+05   3.10e-21
  1.4043e+05   2.96e-21
  1.4568e+05   2.82e-21
  1.5114e+05   2.70e-21
  1.5680e+05   2.57e-21
  1.6266e+05   2.45e-21
  1.6875e+05   2.33e-21
  1.7507e+05   2.22e-21
  1.8162e+05   2.11e-21
  1.8842e+05   2.01e-21
  1.9548e+05   1.91e-21
  2.0279e+05   1.82e-21
  2.1039e+05   1.73e-21
  2.1826e+05   1.64e-21
  2.2643e+05   1.55e-21
  2.3491e+05   1.47e-21
  2.4370e+05   1.40e-21
  2.5282e+05   1.32e-21
  2.6229e+05   1.25e-21
  2.7211e+05   1.18e-21
  2.8229e+05   1.12e-21
  2.9286e+05   1.05e-21
  3.0382e+05   9.93e-22
  3.1519e+05   9.35e-22
  3.2699e+05   8.80e-22
  3.3923e+05   8.28e-22
  3.5193e+05   7.78e-22
  3.6511e+05   7.30e-22
  3.7877e+05   6.85e-22
  3.9295e+05   6.42e-22
  4.0766e+05   6.01e-22
  4.2292e+05   5.63e-22
  4.3875e+05   5.26e-22
  4.5518e+05   4.91e-22
  4.7222e+05   4.58e-22
  4.8989e+05   4.27e-22
  5.0823e+05   3.98e-22
  5.2726e+05   3.70e-22
  5.4699e+05   3.44e-22
  5.6747e+05   3.20e-22
  5.8871e+05   2.97e-22
  6.1075e+05   2.75e-22
  6.3361e+05   2.55e-22
  6.5733e+05   2.36e-22
  6.8194e+05   2.19e-22
  7.0746e+05   2.02e-22
  7.3395e+05   1.87e-22
  7.6142e+05   1.73e-22
  7.8992e+05   1.60e-22
  8.1949e+05   1.48e-22
  8.5017e+05   1.36e-22
  8.8199e+05   1.26e-22
  9.1501e+05   1.16e-22
  9.4926e+05   1.07e-22
  9.8479e+05   9.84e-23
  1.0217e+06   9.06e-23
  1.0599e+06   8.34e-23
  1.0996e+06   7.68e-23
  1.1407e+06   7.06e-23
  1.1834e+06   6.49e-23
  1.2277e+06   5.97e-23
  1.2737e+06   5.49e-23
  1.3214e+06   5.04e-23
  1.3708e+06   4.63e-23
  1.4222e+06   4.25e-23
  1.4754e+06   3.90e-23
  1.5306e+06   3.58e-23
  1.5879e+06   3.29e-23
  1.6474e+06   3.01e-23
  1.7090e+06   2.76e-23
  1.7730e+06   2.53e-23
  1.8394e+06   2.32e-23
  1.9082e+06   2.12e-23
  1.9797e+06   1.94e-23
  2.0538e+06   1.78e-23
  2.1306e+06   1.62e-23
  2.2104e+06   1.48e-23
  2.2931e+06   1.35e-23
  2.3790e+06   1.23e-23
  2.4680e+06   1.12e-23
  2.5604e+06   1.02e-23
  2.6563e+06   9.25e-24
  2.7557e+06   8.41e-24
  2.8589e+06   7.63e-24
  2.9659e+06   6.90e-24
  3.0769e+06   6.25e-24
  3.1921e+06   5.65e-24
  3.3116e+06   5.10e-24
  3.4355e+06   4.59e-24
  3.5641e+06   4.14e-24
  3.6976e+06   3.72e-24
  3.8360e+06   3.33e-24
  3.9796e+06   2.99e-24
  4.1285e+06   2.67e-24
  4.2831e+06   2.38e-24
  4.4434e+06   2.13e-24
  4.6097e+06   1.89e-24
  4.7823e+06   1.67e-24
  4.9613e+06   1.48e-24
  5.1470e+06   1.31e-24
  5.3397e+06   1.15e-24
  5.5396e+06   1.01e-24
  5.7470e+06   8.87e-25
  5.9621e+06   7.72e-25
  6.1853e+06   6.74e-25
  6.4168e+06   5.87e-25
  6.6570e+06   5.06e-25
  6.9062e+06   4.37e-25
  7.1647e+06   3.76e-25
  7.4329e+06   3.21e-25
  7.7112e+06   2.74e-25
  7.9998e+06   2.33e-25
  8.2993e+06   1.97e-25
  8.6100e+06   1.65e-25
  8.9323e+06   1.38e-25
  9.2666e+06   1.15e-25
  9.6135e+06   9.44e-26
  9.9734e+06   7.78e-26
  1.0347e+07   6.33e-26
  1.0734e+07   5.09e-26
  1.1136e+07   4.10e-26
  1.1553e+07   3.25e-26
  1.1985e+07   2.53e-26
  1.2434e+07   1.98e-26
  1.2899e+07   1.52e-26
  1.3382e+07   1.14e-26
  1.3883e+07   8.58e-27
  1.4403e+07   6.31e-27
  1.4942e+07   4.52e-27
  1.5501e+07   3.20e-27
  1.6081e+07   2.22e-27
  1.6683e+07   1.49e-27
  1.7308e+07   9.74e-28
  1.7956e+07   6.21e-28
  1.8628e+07   3.78e-28
  1.9325e+07   2.21e-28
  2.0049e+07   1.24e-28
  2.0799e+07   6.57e-29
  2.1578e+07   3.26e-29
  2.2386e+07   1.53e-29
  2.3224e+07   6.53e-30
  2.4093e+07   2.52e-30
  2.4995e+07   8.93e-31
  2.5930e+07   2.75e-31
  2.6901e+07   7.20e-32
  2.7908e+07   1.62e-32
  2.8953e+07   2.91e-33
  3.0037e+07   4.03e-34
  3.1161e+07   4.20e-35
  3.2327e+07   3.02e-36
  3.3537e+07   1.38e-37
  3.4793e+07   3.71e-39
  3.6095e+07   5.12e-41
  3.7446e+07   3.07e-43
  3.8848e+07   6.65e-46
  4.0302e+07   3.98e-49
  4.1811e+07   4.68e-53
  4.3376e+07   7.04e-58
  4.5000e+07   7.61e-64
