#  E [GeV]   # per interaction  [GeV^{-1}]
  3.0000e+01   6.77e-01
  3.1232e+01   6.47e-01
  3.2514e+01   6.18e-01
  3.3849e+01   5.91e-01
  3.5238e+01   5.65e-01
  3.6685e+01   5.40e-01
  3.8191e+01   5.15e-01
  3.9759e+01   4.92e-01
  4.1391e+01   4.70e-01
  4.3090e+01   4.49e-01
  4.4859e+01   4.29e-01
  4.6701e+01   4.10e-01
  4.8618e+01   3.91e-01
  5.0614e+01   3.74e-01
  5.2692e+01   3.57e-01
  5.4855e+01   3.40e-01
  5.7107e+01   3.25e-01
  5.9451e+01   3.10e-01
  6.1892e+01   2.96e-01
  6.4433e+01   2.82e-01
  6.7078e+01   2.69e-01
  6.9832e+01   2.57e-01
  7.2699e+01   2.45e-01
  7.5683e+01   2.34e-01
  7.8790e+01   2.23e-01
  8.2025e+01   2.12e-01
  8.5392e+01   2.02e-01
  8.8898e+01   1.93e-01
  9.2547e+01   1.84e-01
  9.6347e+01   1.75e-01
  1.0030e+02   1.67e-01
  1.0442e+02   1.59e-01
  1.0871e+02   1.51e-01
  1.1317e+02   1.44e-01
  1.1782e+02   1.37e-01
  1.2265e+02   1.30e-01
  1.2769e+02   1.24e-01
  1.3293e+02   1.18e-01
  1.3839e+02   1.12e-01
  1.4407e+02   1.06e-01
  1.4998e+02   1.01e-01
  1.5614e+02   9.58e-02
  1.6255e+02   9.09e-02
  1.6922e+02   8.62e-02
  1.7617e+02   8.17e-02
  1.8340e+02   7.74e-02
  1.9093e+02   7.33e-02
  1.9877e+02   6.94e-02
  2.0693e+02   6.57e-02
  2.1543e+02   6.21e-02
  2.2427e+02   5.87e-02
  2.3348e+02   5.54e-02
  2.4306e+02   5.23e-02
  2.5304e+02   4.93e-02
  2.6343e+02   4.65e-02
  2.7424e+02   4.38e-02
  2.8550e+02   4.12e-02
  2.9722e+02   3.87e-02
  3.0942e+02   3.63e-02
  3.2213e+02   3.41e-02
  3.3535e+02   3.19e-02
  3.4912e+02   2.99e-02
  3.6345e+02   2.80e-02
  3.7837e+02   2.62e-02
  3.9390e+02   2.44e-02
  4.1008e+02   2.28e-02
  4.2691e+02   2.12e-02
  4.4444e+02   1.98e-02
  4.6268e+02   1.84e-02
  4.8168e+02   1.71e-02
  5.0145e+02   1.58e-02
  5.2204e+02   1.47e-02
  5.4347e+02   1.36e-02
  5.6578e+02   1.26e-02
  5.8901e+02   1.16e-02
  6.1319e+02   1.08e-02
  6.3836e+02   9.92e-03
  6.6457e+02   9.15e-03
  6.9185e+02   8.44e-03
  7.2025e+02   7.77e-03
  7.4982e+02   7.16e-03
  7.8061e+02   6.59e-03
  8.1265e+02   6.06e-03
  8.4601e+02   5.57e-03
  8.8075e+02   5.12e-03
  9.1690e+02   4.71e-03
  9.5455e+02   4.33e-03
  9.9373e+02   3.98e-03
  1.0345e+03   3.66e-03
  1.0770e+03   3.36e-03
  1.1212e+03   3.09e-03
  1.1672e+03   2.83e-03
  1.2152e+03   2.60e-03
  1.2650e+03   2.39e-03
  1.3170e+03   2.20e-03
  1.3711e+03   2.02e-03
  1.4273e+03   1.86e-03
  1.4859e+03   1.71e-03
  1.5469e+03   1.57e-03
  1.6104e+03   1.44e-03
  1.6766e+03   1.33e-03
  1.7454e+03   1.22e-03
  1.8170e+03   1.12e-03
  1.8916e+03   1.03e-03
  1.9693e+03   9.47e-04
  2.0501e+03   8.70e-04
  2.1343e+03   7.99e-04
  2.2219e+03   7.33e-04
  2.3131e+03   6.72e-04
  2.4081e+03   6.16e-04
  2.5070e+03   5.65e-04
  2.6099e+03   5.17e-04
  2.7170e+03   4.73e-04
  2.8286e+03   4.32e-04
  2.9447e+03   3.94e-04
  3.0656e+03   3.60e-04
  3.1914e+03   3.28e-04
  3.3225e+03   2.98e-04
  3.4589e+03   2.71e-04
  3.6008e+03   2.46e-04
  3.7487e+03   2.22e-04
  3.9026e+03   2.01e-04
  4.0628e+03   1.81e-04
  4.2296e+03   1.63e-04
  4.4032e+03   1.47e-04
  4.5840e+03   1.31e-04
  4.7722e+03   1.17e-04
  4.9681e+03   1.05e-04
  5.1720e+03   9.30e-05
  5.3844e+03   8.24e-05
  5.6054e+03   7.28e-05
  5.8355e+03   6.40e-05
  6.0751e+03   5.61e-05
  6.3245e+03   4.91e-05
  6.5841e+03   4.26e-05
  6.8544e+03   3.69e-05
  7.1358e+03   3.18e-05
  7.4288e+03   2.72e-05
  7.7338e+03   2.32e-05
  8.0513e+03   1.96e-05
  8.3818e+03   1.64e-05
  8.7259e+03   1.37e-05
  9.0841e+03   1.13e-05
  9.4571e+03   9.28e-06
  9.8453e+03   7.55e-06
  1.0249e+04   6.06e-06
  1.0670e+04   4.80e-06
  1.1108e+04   3.77e-06
  1.1564e+04   2.91e-06
  1.2039e+04   2.21e-06
  1.2533e+04   1.65e-06
  1.3048e+04   1.21e-06
  1.3584e+04   8.65e-07
  1.4141e+04   6.05e-07
  1.4722e+04   4.11e-07
  1.5326e+04   2.71e-07
  1.5955e+04   1.73e-07
  1.6610e+04   1.05e-07
  1.7292e+04   6.18e-08
  1.8002e+04   3.44e-08
  1.8741e+04   1.79e-08
  1.9511e+04   8.80e-09
  2.0312e+04   3.98e-09
  2.1145e+04   1.64e-09
  2.2013e+04   6.12e-10
  2.2917e+04   2.01e-10
  2.3858e+04   5.70e-11
  2.4837e+04   1.37e-11
  2.5857e+04   2.68e-12
  2.6919e+04   4.11e-13
  2.8024e+04   4.75e-14
  2.9174e+04   3.86e-15
  3.0372e+04   2.06e-16
  3.1619e+04   6.60e-18
  3.2917e+04   1.12e-19
  3.4268e+04   8.86e-22
  3.5675e+04   2.68e-24
  3.7140e+04   2.43e-27
  3.8664e+04   4.88e-31
  4.0252e+04   1.44e-35
  4.1904e+04   3.64e-41
  4.3624e+04   1.77e-46
  4.5415e+04   1.68e-46
  4.7280e+04   1.61e-46
  4.9221e+04   1.56e-46
  5.1241e+04   1.51e-46
  5.3345e+04   1.48e-46
  5.5535e+04   1.48e-46
  5.7815e+04   1.48e-46
  6.0188e+04   1.49e-46
  6.2659e+04   1.55e-46
  6.5232e+04   1.61e-46
  6.7910e+04   1.74e-46
  7.0698e+04   1.95e-46
  7.3600e+04   2.15e-46
  7.6621e+04   2.81e-46
  7.9767e+04   3.73e-46
  8.3042e+04   4.56e-46
  8.6451e+04   6.32e-46
  9.0000e+04   8.27e-46
