#  E [MeV]   Flux [# cm^{-2} s^{-1}  MeV^{-1}]
  3.0000e+04   2.92e-25
  3.1051e+04   2.81e-25
  3.2139e+04   2.70e-25
  3.3266e+04   2.60e-25
  3.4432e+04   2.50e-25
  3.5638e+04   2.41e-25
  3.6887e+04   2.32e-25
  3.8180e+04   2.23e-25
  3.9518e+04   2.14e-25
  4.0903e+04   2.06e-25
  4.2336e+04   1.98e-25
  4.3820e+04   1.90e-25
  4.5355e+04   1.82e-25
  4.6945e+04   1.75e-25
  4.8590e+04   1.68e-25
  5.0293e+04   1.61e-25
  5.2055e+04   1.55e-25
  5.3879e+04   1.48e-25
  5.5767e+04   1.42e-25
  5.7722e+04   1.37e-25
  5.9745e+04   1.31e-25
  6.1838e+04   1.25e-25
  6.4005e+04   1.20e-25
  6.6248e+04   1.15e-25
  6.8570e+04   1.10e-25
  7.0973e+04   1.06e-25
  7.3460e+04   1.01e-25
  7.6034e+04   9.68e-26
  7.8699e+04   9.27e-26
  8.1457e+04   8.87e-26
  8.4311e+04   8.48e-26
  8.7266e+04   8.11e-26
  9.0324e+04   7.76e-26
  9.3490e+04   7.41e-26
  9.6766e+04   7.08e-26
  1.0016e+05   6.77e-26
  1.0367e+05   6.46e-26
  1.0730e+05   6.17e-26
  1.1106e+05   5.89e-26
  1.1495e+05   5.63e-26
  1.1898e+05   5.37e-26
  1.2315e+05   5.12e-26
  1.2747e+05   4.89e-26
  1.3193e+05   4.66e-26
  1.3656e+05   4.44e-26
  1.4134e+05   4.24e-26
  1.4629e+05   4.04e-26
  1.5142e+05   3.85e-26
  1.5673e+05   3.67e-26
  1.6222e+05   3.49e-26
  1.6790e+05   3.32e-26
  1.7379e+05   3.17e-26
  1.7988e+05   3.01e-26
  1.8618e+05   2.87e-26
  1.9271e+05   2.73e-26
  1.9946e+05   2.59e-26
  2.0645e+05   2.47e-26
  2.1369e+05   2.35e-26
  2.2117e+05   2.23e-26
  2.2892e+05   2.12e-26
  2.3695e+05   2.01e-26
  2.4525e+05   1.91e-26
  2.5385e+05   1.82e-26
  2.6274e+05   1.72e-26
  2.7195e+05   1.64e-26
  2.8148e+05   1.55e-26
  2.9134e+05   1.47e-26
  3.0155e+05   1.40e-26
  3.1212e+05   1.33e-26
  3.2306e+05   1.26e-26
  3.3438e+05   1.19e-26
  3.4610e+05   1.13e-26
  3.5823e+05   1.07e-26
  3.7078e+05   1.02e-26
  3.8377e+05   9.65e-27
  3.9722e+05   9.15e-27
  4.1114e+05   8.67e-27
  4.2555e+05   8.21e-27
  4.4046e+05   7.78e-27
  4.5590e+05   7.37e-27
  4.7188e+05   6.98e-27
  4.8841e+05   6.60e-27
  5.0553e+05   6.25e-27
  5.2324e+05   5.92e-27
  5.4158e+05   5.61e-27
  5.6056e+05   5.30e-27
  5.8020e+05   5.02e-27
  6.0054e+05   4.75e-27
  6.2158e+05   4.50e-27
  6.4337e+05   4.26e-27
  6.6591e+05   4.03e-27
  6.8925e+05   3.81e-27
  7.1340e+05   3.61e-27
  7.3840e+05   3.42e-27
  7.6428e+05   3.23e-27
  7.9106e+05   3.06e-27
  8.1878e+05   2.90e-27
  8.4748e+05   2.74e-27
  8.7718e+05   2.60e-27
  9.0792e+05   2.46e-27
  9.3973e+05   2.33e-27
  9.7267e+05   2.21e-27
  1.0068e+06   2.09e-27
  1.0420e+06   1.98e-27
  1.0785e+06   1.88e-27
  1.1163e+06   1.78e-27
  1.1555e+06   1.69e-27
  1.1960e+06   1.60e-27
  1.2379e+06   1.51e-27
  1.2813e+06   1.44e-27
  1.3262e+06   1.36e-27
  1.3726e+06   1.29e-27
  1.4207e+06   1.23e-27
  1.4705e+06   1.17e-27
  1.5220e+06   1.11e-27
  1.5754e+06   1.05e-27
  1.6306e+06   9.99e-28
  1.6877e+06   9.49e-28
  1.7469e+06   9.01e-28
  1.8081e+06   8.57e-28
  1.8715e+06   8.15e-28
  1.9370e+06   7.75e-28
  2.0049e+06   7.37e-28
  2.0752e+06   7.02e-28
  2.1479e+06   6.68e-28
  2.2232e+06   6.36e-28
  2.3011e+06   6.07e-28
  2.3817e+06   5.78e-28
  2.4652e+06   5.51e-28
  2.5516e+06   5.25e-28
  2.6410e+06   5.00e-28
  2.7336e+06   4.77e-28
  2.8294e+06   4.55e-28
  2.9285e+06   4.34e-28
  3.0311e+06   4.14e-28
  3.1374e+06   3.95e-28
  3.2473e+06   3.77e-28
  3.3611e+06   3.60e-28
  3.4789e+06   3.43e-28
  3.6008e+06   3.28e-28
  3.7270e+06   3.13e-28
  3.8576e+06   2.99e-28
  3.9928e+06   2.85e-28
  4.1327e+06   2.73e-28
  4.2775e+06   2.61e-28
  4.4274e+06   2.49e-28
  4.5826e+06   2.38e-28
  4.7432e+06   2.27e-28
  4.9094e+06   2.17e-28
  5.0815e+06   2.07e-28
  5.2595e+06   1.98e-28
  5.4438e+06   1.89e-28
  5.6346e+06   1.81e-28
  5.8321e+06   1.72e-28
  6.0365e+06   1.64e-28
  6.2480e+06   1.57e-28
  6.4670e+06   1.49e-28
  6.6936e+06   1.42e-28
  6.9282e+06   1.36e-28
  7.1709e+06   1.29e-28
  7.4222e+06   1.23e-28
  7.6823e+06   1.17e-28
  7.9516e+06   1.11e-28
  8.2302e+06   1.06e-28
  8.5186e+06   1.01e-28
  8.8172e+06   9.55e-29
  9.1262e+06   9.07e-29
  9.4460e+06   8.60e-29
  9.7770e+06   8.16e-29
  1.0120e+07   7.73e-29
  1.0474e+07   7.31e-29
  1.0841e+07   6.91e-29
  1.1221e+07   6.53e-29
  1.1614e+07   6.16e-29
  1.2022e+07   5.80e-29
  1.2443e+07   5.46e-29
  1.2879e+07   5.13e-29
  1.3330e+07   4.81e-29
  1.3797e+07   4.50e-29
  1.4281e+07   4.21e-29
  1.4781e+07   3.93e-29
  1.5299e+07   3.65e-29
  1.5835e+07   3.40e-29
  1.6390e+07   3.15e-29
  1.6965e+07   2.91e-29
  1.7559e+07   2.68e-29
  1.8175e+07   2.46e-29
  1.8812e+07   2.25e-29
  1.9471e+07   2.05e-29
  2.0153e+07   1.86e-29
  2.0859e+07   1.67e-29
  2.1590e+07   1.50e-29
  2.2347e+07   1.33e-29
  2.3130e+07   1.18e-29
  2.3941e+07   1.03e-29
  2.4780e+07   8.88e-30
  2.5648e+07   7.57e-30
  2.6547e+07   6.36e-30
  2.7477e+07   5.25e-30
  2.8440e+07   4.26e-30
