#  E [MeV]   Flux [# cm^{-2} s^{-1}  MeV^{-1}]
  3.0000e+04   7.21e-26
  3.1232e+04   6.87e-26
  3.2514e+04   6.55e-26
  3.3849e+04   6.24e-26
  3.5238e+04   5.94e-26
  3.6685e+04   5.66e-26
  3.8191e+04   5.39e-26
  3.9759e+04   5.13e-26
  4.1391e+04   4.88e-26
  4.3090e+04   4.65e-26
  4.4859e+04   4.42e-26
  4.6701e+04   4.21e-26
  4.8618e+04   4.00e-26
  5.0614e+04   3.80e-26
  5.2692e+04   3.61e-26
  5.4855e+04   3.44e-26
  5.7107e+04   3.26e-26
  5.9451e+04   3.10e-26
  6.1892e+04   2.95e-26
  6.4433e+04   2.80e-26
  6.7078e+04   2.66e-26
  6.9832e+04   2.52e-26
  7.2699e+04   2.39e-26
  7.5683e+04   2.27e-26
  7.8790e+04   2.15e-26
  8.2025e+04   2.04e-26
  8.5392e+04   1.93e-26
  8.8898e+04   1.83e-26
  9.2547e+04   1.74e-26
  9.6347e+04   1.64e-26
  1.0030e+05   1.56e-26
  1.0442e+05   1.47e-26
  1.0871e+05   1.40e-26
  1.1317e+05   1.32e-26
  1.1782e+05   1.25e-26
  1.2265e+05   1.18e-26
  1.2769e+05   1.12e-26
  1.3293e+05   1.05e-26
  1.3839e+05   9.95e-27
  1.4407e+05   9.39e-27
  1.4998e+05   8.86e-27
  1.5614e+05   8.36e-27
  1.6255e+05   7.88e-27
  1.6922e+05   7.42e-27
  1.7617e+05   6.99e-27
  1.8340e+05   6.58e-27
  1.9093e+05   6.19e-27
  1.9877e+05   5.81e-27
  2.0693e+05   5.46e-27
  2.1543e+05   5.12e-27
  2.2427e+05   4.81e-27
  2.3348e+05   4.50e-27
  2.4306e+05   4.22e-27
  2.5304e+05   3.94e-27
  2.6343e+05   3.69e-27
  2.7424e+05   3.44e-27
  2.8550e+05   3.21e-27
  2.9722e+05   2.99e-27
  3.0942e+05   2.79e-27
  3.2213e+05   2.59e-27
  3.3535e+05   2.41e-27
  3.4912e+05   2.23e-27
  3.6345e+05   2.07e-27
  3.7837e+05   1.92e-27
  3.9390e+05   1.77e-27
  4.1008e+05   1.64e-27
  4.2691e+05   1.51e-27
  4.4444e+05   1.39e-27
  4.6268e+05   1.28e-27
  4.8168e+05   1.18e-27
  5.0145e+05   1.08e-27
  5.2204e+05   9.94e-28
  5.4347e+05   9.11e-28
  5.6578e+05   8.35e-28
  5.8901e+05   7.64e-28
  6.1319e+05   6.98e-28
  6.3836e+05   6.38e-28
  6.6457e+05   5.82e-28
  6.9185e+05   5.31e-28
  7.2025e+05   4.84e-28
  7.4982e+05   4.41e-28
  7.8061e+05   4.02e-28
  8.1265e+05   3.66e-28
  8.4601e+05   3.33e-28
  8.8075e+05   3.03e-28
  9.1690e+05   2.75e-28
  9.5455e+05   2.50e-28
  9.9373e+05   2.28e-28
  1.0345e+06   2.07e-28
  1.0770e+06   1.88e-28
  1.1212e+06   1.71e-28
  1.1672e+06   1.56e-28
  1.2152e+06   1.42e-28
  1.2650e+06   1.29e-28
  1.3170e+06   1.17e-28
  1.3711e+06   1.07e-28
  1.4273e+06   9.75e-29
  1.4859e+06   8.89e-29
  1.5469e+06   8.12e-29
  1.6104e+06   7.41e-29
  1.6766e+06   6.76e-29
  1.7454e+06   6.18e-29
  1.8170e+06   5.64e-29
  1.8916e+06   5.15e-29
  1.9693e+06   4.70e-29
  2.0501e+06   4.29e-29
  2.1343e+06   3.92e-29
  2.2219e+06   3.57e-29
  2.3131e+06   3.25e-29
  2.4081e+06   2.96e-29
  2.5070e+06   2.70e-29
  2.6099e+06   2.45e-29
  2.7170e+06   2.22e-29
  2.8286e+06   2.02e-29
  2.9447e+06   1.82e-29
  3.0656e+06   1.65e-29
  3.1914e+06   1.49e-29
  3.3225e+06   1.34e-29
  3.4589e+06   1.20e-29
  3.6008e+06   1.08e-29
  3.7487e+06   9.64e-30
  3.9026e+06   8.60e-30
  4.0628e+06   7.64e-30
  4.2296e+06   6.77e-30
  4.4032e+06   5.98e-30
  4.5840e+06   5.26e-30
  4.7722e+06   4.61e-30
  4.9681e+06   4.02e-30
  5.1720e+06   3.49e-30
  5.3844e+06   3.02e-30
  5.6054e+06   2.60e-30
  5.8355e+06   2.22e-30
  6.0751e+06   1.89e-30
  6.3245e+06   1.59e-30
  6.5841e+06   1.33e-30
  6.8544e+06   1.11e-30
  7.1358e+06   9.17e-31
  7.4288e+06   7.50e-31
  7.7338e+06   6.10e-31
  8.0513e+06   4.88e-31
  8.3818e+06   3.87e-31
  8.7259e+06   3.04e-31
  9.0841e+06   2.34e-31
  9.4571e+06   1.79e-31
  9.8453e+06   1.34e-31
  1.0249e+07   9.86e-32
  1.0670e+07   7.16e-32
  1.1108e+07   5.08e-32
  1.1564e+07   3.49e-32
  1.2039e+07   2.37e-32
  1.2533e+07   1.56e-32
  1.3048e+07   9.84e-33
  1.3584e+07   6.08e-33
  1.4141e+07   3.59e-33
  1.4722e+07   2.02e-33
  1.5326e+07   1.09e-33
  1.5955e+07   5.55e-34
  1.6610e+07   2.65e-34
  1.7292e+07   1.18e-34
  1.8002e+07   4.83e-35
  1.8741e+07   1.81e-35
  1.9511e+07   6.12e-36
  2.0312e+07   1.81e-36
  2.1145e+07   4.70e-37
  2.2013e+07   1.04e-37
  2.2917e+07   1.87e-38
  2.3858e+07   2.75e-39
  2.4837e+07   3.10e-40
  2.5857e+07   2.54e-41
  2.6919e+07   1.48e-42
  2.8024e+07   5.58e-44
  2.9174e+07   1.24e-45
  3.0372e+07   1.53e-47
  3.1619e+07   8.83e-50
  3.2917e+07   2.05e-52
  3.4268e+07   1.62e-55
  3.5675e+07   3.26e-59
  3.7140e+07   1.23e-63
  3.8664e+07   5.87e-69
  4.0252e+07   1.67e-72
  4.1904e+07   1.44e-72
  4.3624e+07   1.26e-72
  4.5415e+07   1.08e-72
  4.7280e+07   9.47e-73
  4.9221e+07   8.34e-73
  5.1241e+07   7.29e-73
  5.3345e+07   6.49e-73
  5.5535e+07   5.78e-73
  5.7815e+07   5.13e-73
  6.0188e+07   4.61e-73
  6.2659e+07   4.14e-73
  6.5232e+07   3.69e-73
  6.7910e+07   3.31e-73
  7.0698e+07   2.96e-73
  7.3600e+07   2.62e-73
  7.6621e+07   2.30e-73
  7.9767e+07   2.00e-73
  8.3042e+07   1.74e-73
  8.6451e+07   1.52e-73
  9.0000e+07   1.31e-73
