#  E [MeV]   Flux [# cm^{-2} s^{-1}  MeV^{-1}]
  3.0000e+04   3.79e-19
  3.0589e+04   3.68e-19
  3.1190e+04   3.56e-19
  3.1803e+04   3.45e-19
  3.2428e+04   3.34e-19
  3.3065e+04   3.24e-19
  3.3714e+04   3.14e-19
  3.4376e+04   3.04e-19
  3.5052e+04   2.94e-19
  3.5740e+04   2.85e-19
  3.6442e+04   2.76e-19
  3.7158e+04   2.67e-19
  3.7888e+04   2.58e-19
  3.8632e+04   2.50e-19
  3.9391e+04   2.41e-19
  4.0165e+04   2.33e-19
  4.0954e+04   2.26e-19
  4.1758e+04   2.18e-19
  4.2579e+04   2.11e-19
  4.3415e+04   2.04e-19
  4.4268e+04   1.97e-19
  4.5138e+04   1.90e-19
  4.6024e+04   1.84e-19
  4.6928e+04   1.78e-19
  4.7850e+04   1.72e-19
  4.8790e+04   1.66e-19
  4.9749e+04   1.60e-19
  5.0726e+04   1.54e-19
  5.1722e+04   1.49e-19
  5.2738e+04   1.44e-19
  5.3774e+04   1.39e-19
  5.4831e+04   1.34e-19
  5.5908e+04   1.29e-19
  5.7006e+04   1.25e-19
  5.8126e+04   1.20e-19
  5.9268e+04   1.16e-19
  6.0432e+04   1.12e-19
  6.1619e+04   1.08e-19
  6.2829e+04   1.04e-19
  6.4064e+04   9.99e-20
  6.5322e+04   9.62e-20
  6.6605e+04   9.27e-20
  6.7913e+04   8.93e-20
  6.9248e+04   8.60e-20
  7.0608e+04   8.27e-20
  7.1995e+04   7.96e-20
  7.3409e+04   7.67e-20
  7.4851e+04   7.38e-20
  7.6321e+04   7.10e-20
  7.7821e+04   6.82e-20
  7.9349e+04   6.56e-20
  8.0908e+04   6.31e-20
  8.2497e+04   6.06e-20
  8.4118e+04   5.83e-20
  8.5770e+04   5.60e-20
  8.7455e+04   5.38e-20
  8.9173e+04   5.16e-20
  9.0925e+04   4.96e-20
  9.2711e+04   4.77e-20
  9.4532e+04   4.58e-20
  9.6389e+04   4.39e-20
  9.8283e+04   4.21e-20
  1.0021e+05   4.04e-20
  1.0218e+05   3.88e-20
  1.0419e+05   3.72e-20
  1.0624e+05   3.57e-20
  1.0832e+05   3.42e-20
  1.1045e+05   3.28e-20
  1.1262e+05   3.14e-20
  1.1483e+05   3.01e-20
  1.1709e+05   2.88e-20
  1.1939e+05   2.76e-20
  1.2173e+05   2.64e-20
  1.2412e+05   2.53e-20
  1.2656e+05   2.42e-20
  1.2905e+05   2.32e-20
  1.3158e+05   2.22e-20
  1.3417e+05   2.12e-20
  1.3680e+05   2.03e-20
  1.3949e+05   1.94e-20
  1.4223e+05   1.85e-20
  1.4503e+05   1.77e-20
  1.4787e+05   1.69e-20
  1.5078e+05   1.61e-20
  1.5374e+05   1.54e-20
  1.5676e+05   1.47e-20
  1.5984e+05   1.40e-20
  1.6298e+05   1.33e-20
  1.6618e+05   1.27e-20
  1.6945e+05   1.21e-20
  1.7278e+05   1.16e-20
  1.7617e+05   1.10e-20
  1.7963e+05   1.05e-20
  1.8316e+05   9.98e-21
  1.8676e+05   9.50e-21
  1.9042e+05   9.04e-21
  1.9417e+05   8.60e-21
  1.9798e+05   8.17e-21
  2.0187e+05   7.76e-21
  2.0583e+05   7.39e-21
  2.0988e+05   7.02e-21
  2.1400e+05   6.67e-21
  2.1820e+05   6.33e-21
  2.2249e+05   6.00e-21
  2.2686e+05   5.70e-21
  2.3132e+05   5.41e-21
  2.3586e+05   5.14e-21
  2.4049e+05   4.87e-21
  2.4522e+05   4.61e-21
  2.5004e+05   4.36e-21
  2.5495e+05   4.13e-21
  2.5996e+05   3.92e-21
  2.6506e+05   3.71e-21
  2.7027e+05   3.51e-21
  2.7558e+05   3.32e-21
  2.8099e+05   3.13e-21
  2.8651e+05   2.96e-21
  2.9214e+05   2.80e-21
  2.9788e+05   2.65e-21
  3.0373e+05   2.50e-21
  3.0970e+05   2.35e-21
  3.1578e+05   2.21e-21
  3.2198e+05   2.09e-21
  3.2831e+05   1.97e-21
  3.3476e+05   1.86e-21
  3.4133e+05   1.75e-21
  3.4804e+05   1.65e-21
  3.5487e+05   1.55e-21
  3.6185e+05   1.46e-21
  3.6895e+05   1.38e-21
  3.7620e+05   1.29e-21
  3.8359e+05   1.22e-21
  3.9113e+05   1.14e-21
  3.9881e+05   1.07e-21
  4.0664e+05   1.01e-21
  4.1463e+05   9.48e-22
  4.2278e+05   8.91e-22
  4.3108e+05   8.36e-22
  4.3955e+05   7.83e-22
  4.4818e+05   7.32e-22
  4.5699e+05   6.90e-22
  4.6596e+05   6.49e-22
  4.7512e+05   6.09e-22
  4.8445e+05   5.71e-22
  4.9397e+05   5.34e-22
  5.0367e+05   4.99e-22
  5.1356e+05   4.70e-22
  5.2365e+05   4.42e-22
  5.3394e+05   4.15e-22
  5.4443e+05   3.89e-22
  5.5512e+05   3.63e-22
  5.6603e+05   3.40e-22
  5.7715e+05   3.21e-22
  5.8848e+05   3.02e-22
  6.0004e+05   2.84e-22
  6.1183e+05   2.67e-22
  6.2385e+05   2.50e-22
  6.3610e+05   2.35e-22
  6.4860e+05   2.23e-22
  6.6134e+05   2.10e-22
  6.7433e+05   1.99e-22
  6.8758e+05   1.88e-22
  7.0108e+05   1.77e-22
  7.1486e+05   1.67e-22
  7.2890e+05   1.59e-22
  7.4322e+05   1.52e-22
  7.5782e+05   1.45e-22
  7.7270e+05   1.37e-22
  7.8788e+05   1.31e-22
  8.0336e+05   1.25e-22
  8.1914e+05   1.20e-22
  8.3523e+05   1.15e-22
  8.5164e+05   1.11e-22
  8.6837e+05   1.06e-22
  8.8542e+05   1.02e-22
  9.0282e+05   9.89e-23
  9.2055e+05   9.65e-23
  9.3863e+05   9.42e-23
  9.5707e+05   9.20e-23
  9.7587e+05   8.98e-23
  9.9504e+05   8.76e-23
  1.0146e+06   8.66e-23
  1.0345e+06   8.61e-23
  1.0548e+06   8.55e-23
  1.0756e+06   8.49e-23
  1.0967e+06   8.43e-23
  1.1182e+06   8.37e-23
  1.1402e+06   8.48e-23
  1.1626e+06   8.63e-23
  1.1854e+06   8.77e-23
  1.2087e+06   8.89e-23
  1.2325e+06   9.01e-23
  1.2567e+06   9.12e-23
  1.2814e+06   8.75e-23
  1.3065e+06   8.33e-23
  1.3322e+06   7.92e-23
  1.3584e+06   7.52e-23
  1.3851e+06   7.14e-23
  1.4123e+06   6.77e-23
  1.4400e+06   5.56e-23
