#  E [MeV]   Flux [# cm^{-2} s^{-1}  MeV^{-1}]
  3.0000e+04   5.58e-18
  3.0765e+04   5.40e-18
  3.1549e+04   5.23e-18
  3.2354e+04   5.06e-18
  3.3179e+04   4.89e-18
  3.4025e+04   4.73e-18
  3.4892e+04   4.57e-18
  3.5782e+04   4.42e-18
  3.6695e+04   4.27e-18
  3.7630e+04   4.13e-18
  3.8590e+04   3.99e-18
  3.9574e+04   3.85e-18
  4.0583e+04   3.72e-18
  4.1618e+04   3.59e-18
  4.2679e+04   3.47e-18
  4.3767e+04   3.35e-18
  4.4883e+04   3.23e-18
  4.6028e+04   3.12e-18
  4.7201e+04   3.01e-18
  4.8405e+04   2.90e-18
  4.9639e+04   2.80e-18
  5.0905e+04   2.69e-18
  5.2203e+04   2.60e-18
  5.3534e+04   2.50e-18
  5.4899e+04   2.41e-18
  5.6299e+04   2.32e-18
  5.7734e+04   2.24e-18
  5.9207e+04   2.15e-18
  6.0716e+04   2.07e-18
  6.2264e+04   2.00e-18
  6.3852e+04   1.92e-18
  6.5480e+04   1.85e-18
  6.7150e+04   1.78e-18
  6.8862e+04   1.71e-18
  7.0618e+04   1.64e-18
  7.2419e+04   1.58e-18
  7.4265e+04   1.52e-18
  7.6159e+04   1.46e-18
  7.8101e+04   1.40e-18
  8.0092e+04   1.35e-18
  8.2135e+04   1.29e-18
  8.4229e+04   1.24e-18
  8.6377e+04   1.19e-18
  8.8579e+04   1.14e-18
  9.0838e+04   1.10e-18
  9.3154e+04   1.05e-18
  9.5529e+04   1.01e-18
  9.7965e+04   9.69e-19
  1.0046e+05   9.29e-19
  1.0303e+05   8.91e-19
  1.0565e+05   8.53e-19
  1.0835e+05   8.18e-19
  1.1111e+05   7.83e-19
  1.1394e+05   7.50e-19
  1.1685e+05   7.18e-19
  1.1983e+05   6.87e-19
  1.2288e+05   6.57e-19
  1.2602e+05   6.29e-19
  1.2923e+05   6.01e-19
  1.3252e+05   5.75e-19
  1.3590e+05   5.50e-19
  1.3937e+05   5.25e-19
  1.4292e+05   5.02e-19
  1.4657e+05   4.79e-19
  1.5030e+05   4.58e-19
  1.5414e+05   4.37e-19
  1.5807e+05   4.17e-19
  1.6210e+05   3.98e-19
  1.6623e+05   3.79e-19
  1.7047e+05   3.62e-19
  1.7482e+05   3.45e-19
  1.7927e+05   3.29e-19
  1.8384e+05   3.13e-19
  1.8853e+05   2.99e-19
  1.9334e+05   2.84e-19
  1.9827e+05   2.71e-19
  2.0333e+05   2.58e-19
  2.0851e+05   2.45e-19
  2.1383e+05   2.33e-19
  2.1928e+05   2.22e-19
  2.2487e+05   2.11e-19
  2.3060e+05   2.00e-19
  2.3648e+05   1.90e-19
  2.4251e+05   1.81e-19
  2.4870e+05   1.72e-19
  2.5504e+05   1.63e-19
  2.6154e+05   1.55e-19
  2.6821e+05   1.47e-19
  2.7505e+05   1.39e-19
  2.8206e+05   1.32e-19
  2.8926e+05   1.25e-19
  2.9663e+05   1.18e-19
  3.0420e+05   1.12e-19
  3.1195e+05   1.06e-19
  3.1991e+05   1.00e-19
  3.2806e+05   9.50e-20
  3.3643e+05   8.99e-20
  3.4501e+05   8.49e-20
  3.5381e+05   8.02e-20
  3.6283e+05   7.58e-20
  3.7208e+05   7.16e-20
  3.8157e+05   6.76e-20
  3.9130e+05   6.37e-20
  4.0127e+05   6.01e-20
  4.1150e+05   5.67e-20
  4.2200e+05   5.35e-20
  4.3276e+05   5.04e-20
  4.4379e+05   4.74e-20
  4.5511e+05   4.47e-20
  4.6671e+05   4.20e-20
  4.7861e+05   3.95e-20
  4.9082e+05   3.71e-20
  5.0333e+05   3.49e-20
  5.1617e+05   3.28e-20
  5.2933e+05   3.08e-20
  5.4283e+05   2.89e-20
  5.5667e+05   2.70e-20
  5.7086e+05   2.54e-20
  5.8542e+05   2.38e-20
  6.0035e+05   2.23e-20
  6.1565e+05   2.09e-20
  6.3135e+05   1.95e-20
  6.4745e+05   1.83e-20
  6.6396e+05   1.71e-20
  6.8089e+05   1.60e-20
  6.9825e+05   1.49e-20
  7.1606e+05   1.39e-20
  7.3432e+05   1.30e-20
  7.5304e+05   1.21e-20
  7.7224e+05   1.13e-20
  7.9193e+05   1.05e-20
  8.1213e+05   9.83e-21
  8.3283e+05   9.16e-21
  8.5407e+05   8.52e-21
  8.7585e+05   7.91e-21
  8.9818e+05   7.36e-21
  9.2108e+05   6.85e-21
  9.4457e+05   6.37e-21
  9.6866e+05   5.90e-21
  9.9336e+05   5.46e-21
  1.0187e+06   5.08e-21
  1.0447e+06   4.72e-21
  1.0713e+06   4.37e-21
  1.0986e+06   4.04e-21
  1.1266e+06   3.74e-21
  1.1554e+06   3.47e-21
  1.1848e+06   3.22e-21
  1.2150e+06   2.98e-21
  1.2460e+06   2.74e-21
  1.2778e+06   2.55e-21
  1.3104e+06   2.36e-21
  1.3438e+06   2.19e-21
  1.3780e+06   2.02e-21
  1.4132e+06   1.86e-21
  1.4492e+06   1.73e-21
  1.4862e+06   1.60e-21
  1.5241e+06   1.48e-21
  1.5629e+06   1.37e-21
  1.6028e+06   1.27e-21
  1.6436e+06   1.18e-21
  1.6856e+06   1.09e-21
  1.7285e+06   1.01e-21
  1.7726e+06   9.33e-22
  1.8178e+06   8.72e-22
  1.8642e+06   8.13e-22
  1.9117e+06   7.57e-22
  1.9604e+06   7.03e-22
  2.0104e+06   6.58e-22
  2.0617e+06   6.19e-22
  2.1143e+06   5.81e-22
  2.1682e+06   5.45e-22
  2.2235e+06   5.11e-22
  2.2802e+06   4.85e-22
  2.3383e+06   4.61e-22
  2.3979e+06   4.38e-22
  2.4591e+06   4.16e-22
  2.5218e+06   3.96e-22
  2.5861e+06   3.81e-22
  2.6520e+06   3.67e-22
  2.7196e+06   3.52e-22
  2.7890e+06   3.39e-22
  2.8601e+06   3.32e-22
  2.9330e+06   3.26e-22
  3.0078e+06   3.20e-22
  3.0845e+06   3.14e-22
  3.1632e+06   3.10e-22
  3.2438e+06   3.13e-22
  3.3265e+06   3.15e-22
  3.4113e+06   3.16e-22
  3.4983e+06   3.18e-22
  3.5875e+06   3.30e-22
  3.6790e+06   3.47e-22
  3.7728e+06   3.63e-22
  3.8690e+06   3.77e-22
  3.9677e+06   3.94e-22
  4.0689e+06   4.37e-22
  4.1726e+06   4.78e-22
  4.2790e+06   5.16e-22
  4.3881e+06   5.52e-22
  4.5000e+06   5.11e-22
