#  E [GeV]   # per interaction  [GeV^{-1}]
  3.0000e+01   1.11e+00
  3.1123e+01   1.06e+00
  3.2288e+01   1.02e+00
  3.3497e+01   9.71e-01
  3.4751e+01   9.28e-01
  3.6051e+01   8.87e-01
  3.7401e+01   8.48e-01
  3.8801e+01   8.10e-01
  4.0253e+01   7.74e-01
  4.1760e+01   7.39e-01
  4.3324e+01   7.06e-01
  4.4945e+01   6.74e-01
  4.6628e+01   6.44e-01
  4.8373e+01   6.15e-01
  5.0184e+01   5.86e-01
  5.2063e+01   5.60e-01
  5.4011e+01   5.34e-01
  5.6033e+01   5.09e-01
  5.8131e+01   4.86e-01
  6.0307e+01   4.63e-01
  6.2564e+01   4.42e-01
  6.4906e+01   4.21e-01
  6.7336e+01   4.01e-01
  6.9857e+01   3.82e-01
  7.2472e+01   3.64e-01
  7.5184e+01   3.47e-01
  7.7999e+01   3.30e-01
  8.0919e+01   3.15e-01
  8.3948e+01   3.00e-01
  8.7090e+01   2.85e-01
  9.0350e+01   2.71e-01
  9.3732e+01   2.58e-01
  9.7241e+01   2.45e-01
  1.0088e+02   2.33e-01
  1.0466e+02   2.22e-01
  1.0858e+02   2.11e-01
  1.1264e+02   2.00e-01
  1.1686e+02   1.90e-01
  1.2123e+02   1.81e-01
  1.2577e+02   1.72e-01
  1.3048e+02   1.63e-01
  1.3536e+02   1.55e-01
  1.4043e+02   1.47e-01
  1.4568e+02   1.39e-01
  1.5114e+02   1.32e-01
  1.5680e+02   1.25e-01
  1.6266e+02   1.18e-01
  1.6875e+02   1.12e-01
  1.7507e+02   1.06e-01
  1.8162e+02   1.00e-01
  1.8842e+02   9.48e-02
  1.9548e+02   8.96e-02
  2.0279e+02   8.47e-02
  2.1039e+02   8.00e-02
  2.1826e+02   7.55e-02
  2.2643e+02   7.12e-02
  2.3491e+02   6.71e-02
  2.4370e+02   6.33e-02
  2.5282e+02   5.96e-02
  2.6229e+02   5.61e-02
  2.7211e+02   5.27e-02
  2.8229e+02   4.96e-02
  2.9286e+02   4.65e-02
  3.0382e+02   4.37e-02
  3.1519e+02   4.10e-02
  3.2699e+02   3.84e-02
  3.3923e+02   3.59e-02
  3.5193e+02   3.36e-02
  3.6511e+02   3.14e-02
  3.7877e+02   2.94e-02
  3.9295e+02   2.74e-02
  4.0766e+02   2.56e-02
  4.2292e+02   2.38e-02
  4.3875e+02   2.22e-02
  4.5518e+02   2.06e-02
  4.7222e+02   1.92e-02
  4.8989e+02   1.78e-02
  5.0823e+02   1.66e-02
  5.2726e+02   1.54e-02
  5.4699e+02   1.42e-02
  5.6747e+02   1.32e-02
  5.8871e+02   1.22e-02
  6.1075e+02   1.13e-02
  6.3361e+02   1.04e-02
  6.5733e+02   9.65e-03
  6.8194e+02   8.91e-03
  7.0746e+02   8.22e-03
  7.3395e+02   7.58e-03
  7.6142e+02   6.99e-03
  7.8992e+02   6.44e-03
  8.1949e+02   5.93e-03
  8.5017e+02   5.46e-03
  8.8199e+02   5.02e-03
  9.1501e+02   4.62e-03
  9.4926e+02   4.25e-03
  9.8479e+02   3.90e-03
  1.0217e+03   3.59e-03
  1.0599e+03   3.29e-03
  1.0996e+03   3.02e-03
  1.1407e+03   2.77e-03
  1.1834e+03   2.54e-03
  1.2277e+03   2.33e-03
  1.2737e+03   2.13e-03
  1.3214e+03   1.95e-03
  1.3708e+03   1.79e-03
  1.4222e+03   1.64e-03
  1.4754e+03   1.50e-03
  1.5306e+03   1.37e-03
  1.5879e+03   1.25e-03
  1.6474e+03   1.14e-03
  1.7090e+03   1.04e-03
  1.7730e+03   9.53e-04
  1.8394e+03   8.69e-04
  1.9082e+03   7.90e-04
  1.9797e+03   7.21e-04
  2.0538e+03   6.56e-04
  2.1306e+03   5.96e-04
  2.2104e+03   5.42e-04
  2.2931e+03   4.92e-04
  2.3790e+03   4.45e-04
  2.4680e+03   4.04e-04
  2.5604e+03   3.65e-04
  2.6563e+03   3.30e-04
  2.7557e+03   2.98e-04
  2.8589e+03   2.69e-04
  2.9659e+03   2.42e-04
  3.0769e+03   2.17e-04
  3.1921e+03   1.96e-04
  3.3116e+03   1.75e-04
  3.4355e+03   1.57e-04
  3.5641e+03   1.40e-04
  3.6976e+03   1.25e-04
  3.8360e+03   1.11e-04
  3.9796e+03   9.93e-05
  4.1285e+03   8.82e-05
  4.2831e+03   7.79e-05
  4.4434e+03   6.91e-05
  4.6097e+03   6.09e-05
  4.7823e+03   5.34e-05
  4.9613e+03   4.71e-05
  5.1470e+03   4.12e-05
  5.3397e+03   3.59e-05
  5.5396e+03   3.14e-05
  5.7470e+03   2.73e-05
  5.9621e+03   2.36e-05
  6.1853e+03   2.04e-05
  6.4168e+03   1.76e-05
  6.6570e+03   1.51e-05
  6.9062e+03   1.29e-05
  7.1647e+03   1.11e-05
  7.4329e+03   9.38e-06
  7.7112e+03   7.94e-06
  7.9998e+03   6.73e-06
  8.2993e+03   5.64e-06
  8.6100e+03   4.70e-06
  8.9323e+03   3.93e-06
  9.2666e+03   3.25e-06
  9.6135e+03   2.66e-06
  9.9734e+03   2.19e-06
  1.0347e+04   1.78e-06
  1.0734e+04   1.42e-06
  1.1136e+04   1.15e-06
  1.1553e+04   9.19e-07
  1.1985e+04   7.19e-07
  1.2434e+04   5.67e-07
  1.2899e+04   4.41e-07
  1.3382e+04   3.35e-07
  1.3883e+04   2.55e-07
  1.4403e+04   1.91e-07
  1.4942e+04   1.40e-07
  1.5501e+04   1.02e-07
  1.6081e+04   7.26e-08
  1.6683e+04   5.03e-08
  1.7308e+04   3.42e-08
  1.7956e+04   2.28e-08
  1.8628e+04   1.46e-08
  1.9325e+04   9.07e-09
  2.0049e+04   5.45e-09
  2.0799e+04   3.11e-09
  2.1578e+04   1.67e-09
  2.2386e+04   8.54e-10
  2.3224e+04   4.03e-10
  2.4093e+04   1.74e-10
  2.4995e+04   6.82e-11
  2.5930e+04   2.37e-11
  2.6901e+04   7.11e-12
  2.7908e+04   1.82e-12
  2.8953e+04   3.82e-13
  3.0037e+04   6.29e-14
  3.1161e+04   7.81e-15
  3.2327e+04   6.86e-16
  3.3537e+04   3.95e-17
  3.4793e+04   1.36e-18
  3.6095e+04   2.48e-20
  3.7446e+04   2.08e-22
  3.8848e+04   6.58e-25
  4.0302e+04   6.18e-28
  4.1811e+04   1.26e-31
  4.3376e+04   3.69e-36
  4.5000e+04   9.10e-42
