#  E [MeV]   Flux [# cm^{-2} s^{-1}  MeV^{-1}]
  3.0000e+04   4.20e-20
  3.1123e+04   4.02e-20
  3.2288e+04   3.84e-20
  3.3497e+04   3.67e-20
  3.4751e+04   3.51e-20
  3.6051e+04   3.36e-20
  3.7401e+04   3.21e-20
  3.8801e+04   3.07e-20
  4.0253e+04   2.93e-20
  4.1760e+04   2.80e-20
  4.3324e+04   2.67e-20
  4.4945e+04   2.55e-20
  4.6628e+04   2.44e-20
  4.8373e+04   2.33e-20
  5.0184e+04   2.22e-20
  5.2063e+04   2.12e-20
  5.4011e+04   2.02e-20
  5.6033e+04   1.93e-20
  5.8131e+04   1.84e-20
  6.0307e+04   1.75e-20
  6.2564e+04   1.67e-20
  6.4906e+04   1.59e-20
  6.7336e+04   1.52e-20
  6.9857e+04   1.45e-20
  7.2472e+04   1.38e-20
  7.5184e+04   1.31e-20
  7.7999e+04   1.25e-20
  8.0919e+04   1.19e-20
  8.3948e+04   1.13e-20
  8.7090e+04   1.08e-20
  9.0350e+04   1.03e-20
  9.3732e+04   9.76e-21
  9.7241e+04   9.29e-21
  1.0088e+05   8.83e-21
  1.0466e+05   8.39e-21
  1.0858e+05   7.98e-21
  1.1264e+05   7.58e-21
  1.1686e+05   7.20e-21
  1.2123e+05   6.84e-21
  1.2577e+05   6.49e-21
  1.3048e+05   6.16e-21
  1.3536e+05   5.85e-21
  1.4043e+05   5.55e-21
  1.4568e+05   5.26e-21
  1.5114e+05   4.99e-21
  1.5680e+05   4.72e-21
  1.6266e+05   4.47e-21
  1.6875e+05   4.24e-21
  1.7507e+05   4.01e-21
  1.8162e+05   3.79e-21
  1.8842e+05   3.59e-21
  1.9548e+05   3.39e-21
  2.0279e+05   3.20e-21
  2.1039e+05   3.03e-21
  2.1826e+05   2.86e-21
  2.2643e+05   2.69e-21
  2.3491e+05   2.54e-21
  2.4370e+05   2.39e-21
  2.5282e+05   2.25e-21
  2.6229e+05   2.12e-21
  2.7211e+05   2.00e-21
  2.8229e+05   1.88e-21
  2.9286e+05   1.76e-21
  3.0382e+05   1.65e-21
  3.1519e+05   1.55e-21
  3.2699e+05   1.45e-21
  3.3923e+05   1.36e-21
  3.5193e+05   1.27e-21
  3.6511e+05   1.19e-21
  3.7877e+05   1.11e-21
  3.9295e+05   1.04e-21
  4.0766e+05   9.67e-22
  4.2292e+05   9.01e-22
  4.3875e+05   8.40e-22
  4.5518e+05   7.81e-22
  4.7222e+05   7.26e-22
  4.8989e+05   6.75e-22
  5.0823e+05   6.27e-22
  5.2726e+05   5.81e-22
  5.4699e+05   5.39e-22
  5.6747e+05   4.99e-22
  5.8871e+05   4.62e-22
  6.1075e+05   4.27e-22
  6.3361e+05   3.95e-22
  6.5733e+05   3.65e-22
  6.8194e+05   3.37e-22
  7.0746e+05   3.11e-22
  7.3395e+05   2.87e-22
  7.6142e+05   2.64e-22
  7.8992e+05   2.44e-22
  8.1949e+05   2.24e-22
  8.5017e+05   2.07e-22
  8.8199e+05   1.90e-22
  9.1501e+05   1.75e-22
  9.4926e+05   1.61e-22
  9.8479e+05   1.48e-22
  1.0217e+06   1.36e-22
  1.0599e+06   1.25e-22
  1.0996e+06   1.14e-22
  1.1407e+06   1.05e-22
  1.1834e+06   9.61e-23
  1.2277e+06   8.81e-23
  1.2737e+06   8.08e-23
  1.3214e+06   7.39e-23
  1.3708e+06   6.77e-23
  1.4222e+06   6.20e-23
  1.4754e+06   5.67e-23
  1.5306e+06   5.18e-23
  1.5879e+06   4.74e-23
  1.6474e+06   4.32e-23
  1.7090e+06   3.95e-23
  1.7730e+06   3.60e-23
  1.8394e+06   3.29e-23
  1.9082e+06   2.99e-23
  1.9797e+06   2.73e-23
  2.0538e+06   2.48e-23
  2.1306e+06   2.25e-23
  2.2104e+06   2.05e-23
  2.2931e+06   1.86e-23
  2.3790e+06   1.68e-23
  2.4680e+06   1.53e-23
  2.5604e+06   1.38e-23
  2.6563e+06   1.25e-23
  2.7557e+06   1.13e-23
  2.8589e+06   1.02e-23
  2.9659e+06   9.15e-24
  3.0769e+06   8.23e-24
  3.1921e+06   7.40e-24
  3.3116e+06   6.63e-24
  3.4355e+06   5.93e-24
  3.5641e+06   5.31e-24
  3.6976e+06   4.74e-24
  3.8360e+06   4.21e-24
  3.9796e+06   3.76e-24
  4.1285e+06   3.34e-24
  4.2831e+06   2.95e-24
  4.4434e+06   2.61e-24
  4.6097e+06   2.31e-24
  4.7823e+06   2.02e-24
  4.9613e+06   1.78e-24
  5.1470e+06   1.56e-24
  5.3397e+06   1.36e-24
  5.5396e+06   1.19e-24
  5.7470e+06   1.03e-24
  5.9621e+06   8.91e-25
  6.1853e+06   7.72e-25
  6.4168e+06   6.67e-25
  6.6570e+06   5.71e-25
  6.9062e+06   4.89e-25
  7.1647e+06   4.19e-25
  7.4329e+06   3.55e-25
  7.7112e+06   3.00e-25
  7.9998e+06   2.55e-25
  8.2993e+06   2.13e-25
  8.6100e+06   1.78e-25
  8.9323e+06   1.49e-25
  9.2666e+06   1.23e-25
  9.6135e+06   1.00e-25
  9.9734e+06   8.28e-26
  1.0347e+07   6.73e-26
  1.0734e+07   5.39e-26
  1.1136e+07   4.36e-26
  1.1553e+07   3.48e-26
  1.1985e+07   2.72e-26
  1.2434e+07   2.15e-26
  1.2899e+07   1.67e-26
  1.3382e+07   1.27e-26
  1.3883e+07   9.65e-27
  1.4403e+07   7.24e-27
  1.4942e+07   5.30e-27
  1.5501e+07   3.85e-27
  1.6081e+07   2.75e-27
  1.6683e+07   1.90e-27
  1.7308e+07   1.29e-27
  1.7956e+07   8.63e-28
  1.8628e+07   5.53e-28
  1.9325e+07   3.43e-28
  2.0049e+07   2.06e-28
  2.0799e+07   1.18e-28
  2.1578e+07   6.33e-29
  2.2386e+07   3.23e-29
  2.3224e+07   1.52e-29
  2.4093e+07   6.57e-30
  2.4995e+07   2.58e-30
  2.5930e+07   8.96e-31
  2.6901e+07   2.69e-31
  2.7908e+07   6.90e-32
  2.8953e+07   1.45e-32
  3.0037e+07   2.38e-33
  3.1161e+07   2.96e-34
  3.2327e+07   2.60e-35
  3.3537e+07   1.49e-36
  3.4793e+07   5.14e-38
  3.6095e+07   9.39e-40
  3.7446e+07   7.85e-42
  3.8848e+07   2.49e-44
  4.0302e+07   2.34e-47
  4.1811e+07   4.75e-51
  4.3376e+07   1.39e-55
  4.5000e+07   3.44e-61
