#  E [MeV]   Flux [# cm^{-2} s^{-1}  MeV^{-1}]
  3.0000e+04   3.65e-27
  3.1232e+04   3.51e-27
  3.2514e+04   3.37e-27
  3.3849e+04   3.24e-27
  3.5238e+04   3.12e-27
  3.6685e+04   2.99e-27
  3.8191e+04   2.87e-27
  3.9759e+04   2.76e-27
  4.1391e+04   2.65e-27
  4.3090e+04   2.54e-27
  4.4859e+04   2.44e-27
  4.6701e+04   2.34e-27
  4.8618e+04   2.24e-27
  5.0614e+04   2.15e-27
  5.2692e+04   2.06e-27
  5.4855e+04   1.98e-27
  5.7107e+04   1.89e-27
  5.9451e+04   1.81e-27
  6.1892e+04   1.74e-27
  6.4433e+04   1.66e-27
  6.7078e+04   1.59e-27
  6.9832e+04   1.52e-27
  7.2699e+04   1.46e-27
  7.5683e+04   1.39e-27
  7.8790e+04   1.33e-27
  8.2025e+04   1.27e-27
  8.5392e+04   1.22e-27
  8.8898e+04   1.16e-27
  9.2547e+04   1.11e-27
  9.6347e+04   1.06e-27
  1.0030e+05   1.01e-27
  1.0442e+05   9.65e-28
  1.0871e+05   9.21e-28
  1.1317e+05   8.78e-28
  1.1782e+05   8.37e-28
  1.2265e+05   7.97e-28
  1.2769e+05   7.59e-28
  1.3293e+05   7.23e-28
  1.3839e+05   6.88e-28
  1.4407e+05   6.55e-28
  1.4998e+05   6.23e-28
  1.5614e+05   5.92e-28
  1.6255e+05   5.62e-28
  1.6922e+05   5.34e-28
  1.7617e+05   5.07e-28
  1.8340e+05   4.81e-28
  1.9093e+05   4.56e-28
  1.9877e+05   4.33e-28
  2.0693e+05   4.10e-28
  2.1543e+05   3.88e-28
  2.2427e+05   3.68e-28
  2.3348e+05   3.48e-28
  2.4306e+05   3.29e-28
  2.5304e+05   3.11e-28
  2.6343e+05   2.94e-28
  2.7424e+05   2.77e-28
  2.8550e+05   2.61e-28
  2.9722e+05   2.46e-28
  3.0942e+05   2.32e-28
  3.2213e+05   2.18e-28
  3.3535e+05   2.05e-28
  3.4912e+05   1.93e-28
  3.6345e+05   1.82e-28
  3.7837e+05   1.70e-28
  3.9390e+05   1.60e-28
  4.1008e+05   1.50e-28
  4.2691e+05   1.41e-28
  4.4444e+05   1.32e-28
  4.6268e+05   1.23e-28
  4.8168e+05   1.15e-28
  5.0145e+05   1.08e-28
  5.2204e+05   1.01e-28
  5.4347e+05   9.38e-29
  5.6578e+05   8.75e-29
  5.8901e+05   8.16e-29
  6.1319e+05   7.60e-29
  6.3836e+05   7.08e-29
  6.6457e+05   6.59e-29
  6.9185e+05   6.13e-29
  7.2025e+05   5.71e-29
  7.4982e+05   5.31e-29
  7.8061e+05   4.93e-29
  8.1265e+05   4.59e-29
  8.4601e+05   4.26e-29
  8.8075e+05   3.96e-29
  9.1690e+05   3.68e-29
  9.5455e+05   3.42e-29
  9.9373e+05   3.17e-29
  1.0345e+06   2.95e-29
  1.0770e+06   2.74e-29
  1.1212e+06   2.55e-29
  1.1672e+06   2.36e-29
  1.2152e+06   2.20e-29
  1.2650e+06   2.04e-29
  1.3170e+06   1.90e-29
  1.3711e+06   1.76e-29
  1.4273e+06   1.64e-29
  1.4859e+06   1.53e-29
  1.5469e+06   1.42e-29
  1.6104e+06   1.32e-29
  1.6766e+06   1.23e-29
  1.7454e+06   1.14e-29
  1.8170e+06   1.07e-29
  1.8916e+06   9.92e-30
  1.9693e+06   9.23e-30
  2.0501e+06   8.60e-30
  2.1343e+06   8.01e-30
  2.2219e+06   7.46e-30
  2.3131e+06   6.95e-30
  2.4081e+06   6.47e-30
  2.5070e+06   6.03e-30
  2.6099e+06   5.62e-30
  2.7170e+06   5.23e-30
  2.8286e+06   4.88e-30
  2.9447e+06   4.55e-30
  3.0656e+06   4.23e-30
  3.1914e+06   3.95e-30
  3.3225e+06   3.68e-30
  3.4589e+06   3.42e-30
  3.6008e+06   3.19e-30
  3.7487e+06   2.97e-30
  3.9026e+06   2.76e-30
  4.0628e+06   2.57e-30
  4.2296e+06   2.39e-30
  4.4032e+06   2.22e-30
  4.5840e+06   2.06e-30
  4.7722e+06   1.91e-30
  4.9681e+06   1.77e-30
  5.1720e+06   1.64e-30
  5.3844e+06   1.52e-30
  5.6054e+06   1.41e-30
  5.8355e+06   1.30e-30
  6.0751e+06   1.20e-30
  6.3245e+06   1.11e-30
  6.5841e+06   1.02e-30
  6.8544e+06   9.38e-31
  7.1358e+06   8.61e-31
  7.4288e+06   7.88e-31
  7.7338e+06   7.19e-31
  8.0513e+06   6.56e-31
  8.3818e+06   5.96e-31
  8.7259e+06   5.40e-31
  9.0841e+06   4.87e-31
  9.4571e+06   4.38e-31
  9.8453e+06   3.93e-31
  1.0249e+07   3.50e-31
  1.0670e+07   3.10e-31
  1.1108e+07   2.73e-31
  1.1564e+07   2.39e-31
  1.2039e+07   2.08e-31
  1.2533e+07   1.79e-31
  1.3048e+07   1.53e-31
  1.3584e+07   1.29e-31
  1.4141e+07   1.07e-31
  1.4722e+07   8.81e-32
  1.5326e+07   7.12e-32
  1.5955e+07   5.66e-32
  1.6610e+07   4.40e-32
  1.7292e+07   3.35e-32
  1.8002e+07   2.48e-32
  1.8741e+07   1.78e-32
  1.9511e+07   1.23e-32
  2.0312e+07   8.17e-33
  2.1145e+07   5.17e-33
  2.2013e+07   3.09e-33
  2.2917e+07   1.73e-33
  2.3858e+07   8.92e-34
  2.4837e+07   4.20e-34
  2.5857e+07   1.77e-34
  2.6919e+07   6.55e-35
  2.8024e+07   2.07e-35
  2.9174e+07   5.40e-36
  3.0372e+07   1.12e-36
  3.1619e+07   1.73e-37
  3.2917e+07   1.90e-38
  3.4268e+07   1.35e-39
  3.5675e+07   5.54e-41
  3.7140e+07   1.15e-42
  3.8664e+07   1.01e-44
  4.0252e+07   2.94e-47
  4.1904e+07   2.06e-50
  4.3624e+07   2.27e-54
  4.5415e+07   2.20e-59
  4.7280e+07   8.57e-66
  4.9221e+07   1.58e-71
  5.1241e+07   1.50e-71
  5.3345e+07   1.41e-71
  5.5535e+07   1.33e-71
  5.7815e+07   1.26e-71
  6.0188e+07   1.19e-71
  6.2659e+07   1.12e-71
  6.5232e+07   1.05e-71
  6.7910e+07   9.93e-72
  7.0698e+07   9.34e-72
  7.3600e+07   8.78e-72
  7.6621e+07   8.25e-72
  7.9767e+07   7.73e-72
  8.3042e+07   7.24e-72
  8.6451e+07   6.78e-72
  9.0000e+07   6.38e-72
