#  E [GeV]   # per interaction  [GeV^{-1}]
  3.0000e+01   4.30e-01
  3.0962e+01   4.15e-01
  3.1955e+01   4.00e-01
  3.2979e+01   3.86e-01
  3.4037e+01   3.73e-01
  3.5128e+01   3.60e-01
  3.6254e+01   3.47e-01
  3.7417e+01   3.35e-01
  3.8616e+01   3.23e-01
  3.9855e+01   3.11e-01
  4.1132e+01   3.00e-01
  4.2451e+01   2.89e-01
  4.3812e+01   2.79e-01
  4.5217e+01   2.69e-01
  4.6667e+01   2.59e-01
  4.8163e+01   2.49e-01
  4.9707e+01   2.40e-01
  5.1301e+01   2.31e-01
  5.2946e+01   2.23e-01
  5.4644e+01   2.14e-01
  5.6396e+01   2.06e-01
  5.8204e+01   1.98e-01
  6.0070e+01   1.91e-01
  6.1996e+01   1.84e-01
  6.3984e+01   1.77e-01
  6.6035e+01   1.70e-01
  6.8153e+01   1.63e-01
  7.0338e+01   1.57e-01
  7.2593e+01   1.51e-01
  7.4921e+01   1.45e-01
  7.7323e+01   1.39e-01
  7.9802e+01   1.33e-01
  8.2361e+01   1.28e-01
  8.5002e+01   1.23e-01
  8.7727e+01   1.18e-01
  9.0540e+01   1.13e-01
  9.3443e+01   1.08e-01
  9.6439e+01   1.04e-01
  9.9531e+01   9.95e-02
  1.0272e+02   9.53e-02
  1.0602e+02   9.13e-02
  1.0942e+02   8.74e-02
  1.1292e+02   8.37e-02
  1.1654e+02   8.01e-02
  1.2028e+02   7.66e-02
  1.2414e+02   7.33e-02
  1.2812e+02   7.00e-02
  1.3223e+02   6.69e-02
  1.3646e+02   6.40e-02
  1.4084e+02   6.11e-02
  1.4536e+02   5.83e-02
  1.5002e+02   5.57e-02
  1.5483e+02   5.32e-02
  1.5979e+02   5.07e-02
  1.6491e+02   4.84e-02
  1.7020e+02   4.61e-02
  1.7566e+02   4.40e-02
  1.8129e+02   4.19e-02
  1.8710e+02   3.99e-02
  1.9310e+02   3.80e-02
  1.9929e+02   3.62e-02
  2.0568e+02   3.44e-02
  2.1228e+02   3.27e-02
  2.1909e+02   3.11e-02
  2.2611e+02   2.96e-02
  2.3336e+02   2.81e-02
  2.4084e+02   2.67e-02
  2.4856e+02   2.53e-02
  2.5653e+02   2.41e-02
  2.6476e+02   2.28e-02
  2.7325e+02   2.17e-02
  2.8201e+02   2.05e-02
  2.9105e+02   1.95e-02
  3.0038e+02   1.84e-02
  3.1002e+02   1.75e-02
  3.1996e+02   1.65e-02
  3.3021e+02   1.56e-02
  3.4080e+02   1.48e-02
  3.5173e+02   1.40e-02
  3.6301e+02   1.32e-02
  3.7465e+02   1.25e-02
  3.8666e+02   1.18e-02
  3.9905e+02   1.11e-02
  4.1185e+02   1.05e-02
  4.2506e+02   9.91e-03
  4.3868e+02   9.34e-03
  4.5275e+02   8.80e-03
  4.6727e+02   8.29e-03
  4.8225e+02   7.80e-03
  4.9771e+02   7.34e-03
  5.1367e+02   6.90e-03
  5.3014e+02   6.49e-03
  5.4714e+02   6.10e-03
  5.6468e+02   5.73e-03
  5.8278e+02   5.38e-03
  6.0147e+02   5.05e-03
  6.2075e+02   4.73e-03
  6.4066e+02   4.44e-03
  6.6120e+02   4.16e-03
  6.8240e+02   3.90e-03
  7.0428e+02   3.65e-03
  7.2686e+02   3.41e-03
  7.5017e+02   3.19e-03
  7.7422e+02   2.99e-03
  7.9904e+02   2.79e-03
  8.2466e+02   2.61e-03
  8.5110e+02   2.43e-03
  8.7839e+02   2.27e-03
  9.0656e+02   2.12e-03
  9.3562e+02   1.98e-03
  9.6562e+02   1.84e-03
  9.9658e+02   1.71e-03
  1.0285e+03   1.60e-03
  1.0615e+03   1.49e-03
  1.0956e+03   1.38e-03
  1.1307e+03   1.29e-03
  1.1669e+03   1.20e-03
  1.2043e+03   1.11e-03
  1.2430e+03   1.03e-03
  1.2828e+03   9.59e-04
  1.3239e+03   8.90e-04
  1.3664e+03   8.24e-04
  1.4102e+03   7.62e-04
  1.4554e+03   7.07e-04
  1.5021e+03   6.55e-04
  1.5502e+03   6.06e-04
  1.6000e+03   5.61e-04
  1.6513e+03   5.19e-04
  1.7042e+03   4.79e-04
  1.7588e+03   4.41e-04
  1.8152e+03   4.08e-04
  1.8734e+03   3.77e-04
  1.9335e+03   3.47e-04
  1.9955e+03   3.19e-04
  2.0595e+03   2.94e-04
  2.1255e+03   2.71e-04
  2.1937e+03   2.49e-04
  2.2640e+03   2.29e-04
  2.3366e+03   2.11e-04
  2.4115e+03   1.93e-04
  2.4888e+03   1.77e-04
  2.5686e+03   1.63e-04
  2.6510e+03   1.49e-04
  2.7360e+03   1.36e-04
  2.8237e+03   1.25e-04
  2.9142e+03   1.14e-04
  3.0077e+03   1.05e-04
  3.1041e+03   9.54e-05
  3.2036e+03   8.73e-05
  3.3064e+03   7.98e-05
  3.4124e+03   7.27e-05
  3.5218e+03   6.60e-05
  3.6347e+03   6.04e-05
  3.7512e+03   5.51e-05
  3.8715e+03   5.00e-05
  3.9957e+03   4.55e-05
  4.1238e+03   4.15e-05
  4.2560e+03   3.77e-05
  4.3924e+03   3.42e-05
  4.5333e+03   3.12e-05
  4.6786e+03   2.84e-05
  4.8286e+03   2.58e-05
  4.9835e+03   2.34e-05
  5.1433e+03   2.14e-05
  5.3082e+03   1.95e-05
  5.4784e+03   1.77e-05
  5.6540e+03   1.62e-05
  5.8353e+03   1.48e-05
  6.0224e+03   1.35e-05
  6.2155e+03   1.23e-05
  6.4148e+03   1.13e-05
  6.6205e+03   1.05e-05
  6.8327e+03   9.61e-06
  7.0518e+03   8.84e-06
  7.2779e+03   8.23e-06
  7.5113e+03   7.65e-06
  7.7521e+03   7.10e-06
  8.0007e+03   6.63e-06
  8.2572e+03   6.24e-06
  8.5219e+03   5.87e-06
  8.7952e+03   5.52e-06
  9.0772e+03   5.25e-06
  9.3682e+03   5.01e-06
  9.6686e+03   4.77e-06
  9.9786e+03   4.57e-06
  1.0299e+04   4.46e-06
  1.0629e+04   4.34e-06
  1.0970e+04   4.22e-06
  1.1321e+04   4.19e-06
  1.1684e+04   4.20e-06
  1.2059e+04   4.19e-06
  1.2446e+04   4.16e-06
  1.2845e+04   4.42e-06
  1.3256e+04   4.64e-06
  1.3681e+04   4.81e-06
  1.4120e+04   5.24e-06
  1.4573e+04   6.21e-06
  1.5040e+04   7.01e-06
  1.5522e+04   7.66e-06
  1.6020e+04   7.86e-06
