#  E [GeV]   # per interaction  [GeV^{-1}]
  3.0000e+01   2.63e-02
  3.1123e+01   2.53e-02
  3.2288e+01   2.44e-02
  3.3497e+01   2.34e-02
  3.4751e+01   2.25e-02
  3.6051e+01   2.16e-02
  3.7401e+01   2.08e-02
  3.8801e+01   2.00e-02
  4.0253e+01   1.92e-02
  4.1760e+01   1.84e-02
  4.3324e+01   1.77e-02
  4.4945e+01   1.70e-02
  4.6628e+01   1.63e-02
  4.8373e+01   1.56e-02
  5.0184e+01   1.50e-02
  5.2063e+01   1.44e-02
  5.4011e+01   1.38e-02
  5.6033e+01   1.32e-02
  5.8131e+01   1.27e-02
  6.0307e+01   1.21e-02
  6.2564e+01   1.16e-02
  6.4906e+01   1.11e-02
  6.7336e+01   1.07e-02
  6.9857e+01   1.02e-02
  7.2472e+01   9.77e-03
  7.5184e+01   9.34e-03
  7.7999e+01   8.94e-03
  8.0919e+01   8.54e-03
  8.3948e+01   8.17e-03
  8.7090e+01   7.80e-03
  9.0350e+01   7.45e-03
  9.3732e+01   7.12e-03
  9.7241e+01   6.80e-03
  1.0088e+02   6.49e-03
  1.0466e+02   6.19e-03
  1.0858e+02   5.90e-03
  1.1264e+02   5.63e-03
  1.1686e+02   5.37e-03
  1.2123e+02   5.12e-03
  1.2577e+02   4.87e-03
  1.3048e+02   4.64e-03
  1.3536e+02   4.42e-03
  1.4043e+02   4.20e-03
  1.4568e+02   4.00e-03
  1.5114e+02   3.81e-03
  1.5680e+02   3.62e-03
  1.6266e+02   3.44e-03
  1.6875e+02   3.27e-03
  1.7507e+02   3.10e-03
  1.8162e+02   2.95e-03
  1.8842e+02   2.80e-03
  1.9548e+02   2.65e-03
  2.0279e+02   2.51e-03
  2.1039e+02   2.38e-03
  2.1826e+02   2.26e-03
  2.2643e+02   2.14e-03
  2.3491e+02   2.02e-03
  2.4370e+02   1.91e-03
  2.5282e+02   1.81e-03
  2.6229e+02   1.71e-03
  2.7211e+02   1.62e-03
  2.8229e+02   1.53e-03
  2.9286e+02   1.44e-03
  3.0382e+02   1.36e-03
  3.1519e+02   1.28e-03
  3.2699e+02   1.21e-03
  3.3923e+02   1.14e-03
  3.5193e+02   1.07e-03
  3.6511e+02   1.01e-03
  3.7877e+02   9.48e-04
  3.9295e+02   8.91e-04
  4.0766e+02   8.37e-04
  4.2292e+02   7.86e-04
  4.3875e+02   7.38e-04
  4.5518e+02   6.92e-04
  4.7222e+02   6.49e-04
  4.8989e+02   6.08e-04
  5.0823e+02   5.70e-04
  5.2726e+02   5.34e-04
  5.4699e+02   5.00e-04
  5.6747e+02   4.68e-04
  5.8871e+02   4.37e-04
  6.1075e+02   4.09e-04
  6.3361e+02   3.82e-04
  6.5733e+02   3.57e-04
  6.8194e+02   3.33e-04
  7.0746e+02   3.12e-04
  7.3395e+02   2.91e-04
  7.6142e+02   2.72e-04
  7.8992e+02   2.54e-04
  8.1949e+02   2.37e-04
  8.5017e+02   2.21e-04
  8.8199e+02   2.07e-04
  9.1501e+02   1.93e-04
  9.4926e+02   1.80e-04
  9.8479e+02   1.68e-04
  1.0217e+03   1.57e-04
  1.0599e+03   1.47e-04
  1.0996e+03   1.37e-04
  1.1407e+03   1.28e-04
  1.1834e+03   1.20e-04
  1.2277e+03   1.12e-04
  1.2737e+03   1.05e-04
  1.3214e+03   9.85e-05
  1.3708e+03   9.22e-05
  1.4222e+03   8.64e-05
  1.4754e+03   8.10e-05
  1.5306e+03   7.59e-05
  1.5879e+03   7.12e-05
  1.6474e+03   6.68e-05
  1.7090e+03   6.26e-05
  1.7730e+03   5.88e-05
  1.8394e+03   5.53e-05
  1.9082e+03   5.19e-05
  1.9797e+03   4.88e-05
  2.0538e+03   4.59e-05
  2.1306e+03   4.31e-05
  2.2104e+03   4.06e-05
  2.2931e+03   3.82e-05
  2.3790e+03   3.60e-05
  2.4680e+03   3.39e-05
  2.5604e+03   3.19e-05
  2.6563e+03   3.00e-05
  2.7557e+03   2.83e-05
  2.8589e+03   2.67e-05
  2.9659e+03   2.52e-05
  3.0769e+03   2.37e-05
  3.1921e+03   2.24e-05
  3.3116e+03   2.11e-05
  3.4355e+03   1.99e-05
  3.5641e+03   1.87e-05
  3.6976e+03   1.77e-05
  3.8360e+03   1.66e-05
  3.9796e+03   1.57e-05
  4.1285e+03   1.48e-05
  4.2831e+03   1.39e-05
  4.4434e+03   1.31e-05
  4.6097e+03   1.23e-05
  4.7823e+03   1.16e-05
  4.9613e+03   1.09e-05
  5.1470e+03   1.02e-05
  5.3397e+03   9.62e-06
  5.5396e+03   9.02e-06
  5.7470e+03   8.46e-06
  5.9621e+03   7.92e-06
  6.1853e+03   7.40e-06
  6.4168e+03   6.91e-06
  6.6570e+03   6.45e-06
  6.9062e+03   6.00e-06
  7.1647e+03   5.58e-06
  7.4329e+03   5.18e-06
  7.7112e+03   4.79e-06
  7.9998e+03   4.42e-06
  8.2993e+03   4.07e-06
  8.6100e+03   3.74e-06
  8.9323e+03   3.42e-06
  9.2666e+03   3.12e-06
  9.6135e+03   2.84e-06
  9.9734e+03   2.57e-06
  1.0347e+04   2.32e-06
  1.0734e+04   2.08e-06
  1.1136e+04   1.85e-06
  1.1553e+04   1.64e-06
  1.1985e+04   1.44e-06
  1.2434e+04   1.26e-06
  1.2899e+04   1.09e-06
  1.3382e+04   9.39e-07
  1.3883e+04   7.98e-07
  1.4403e+04   6.71e-07
  1.4942e+04   5.57e-07
  1.5501e+04   4.55e-07
  1.6081e+04   3.67e-07
  1.6683e+04   2.90e-07
  1.7308e+04   2.25e-07
  1.7956e+04   1.70e-07
  1.8628e+04   1.25e-07
  1.9325e+04   8.99e-08
  2.0049e+04   6.22e-08
  2.0799e+04   4.15e-08
  2.1578e+04   2.64e-08
  2.2386e+04   1.60e-08
  2.3224e+04   9.12e-09
  2.4093e+04   4.85e-09
  2.4995e+04   2.38e-09
  2.5930e+04   1.06e-09
  2.6901e+04   4.25e-10
  2.7908e+04   1.49e-10
  2.8953e+04   4.45e-11
  3.0037e+04   1.10e-11
  3.1161e+04   2.19e-12
  3.2327e+04   3.31e-13
  3.3537e+04   3.60e-14
  3.4793e+04   2.62e-15
  3.6095e+04   1.16e-16
  3.7446e+04   2.82e-18
  3.8848e+04   3.19e-20
  4.0302e+04   1.40e-22
  4.1811e+04   1.86e-25
  4.3376e+04   5.42e-29
  4.5000e+04   2.27e-33
