#  E [MeV]   Flux [# cm^{-2} s^{-1}  MeV^{-1}]
  3.0000e+04   1.55e-25
  3.1141e+04   1.49e-25
  3.2326e+04   1.43e-25
  3.3556e+04   1.37e-25
  3.4832e+04   1.31e-25
  3.6157e+04   1.26e-25
  3.7533e+04   1.21e-25
  3.8961e+04   1.16e-25
  4.0443e+04   1.11e-25
  4.1982e+04   1.06e-25
  4.3579e+04   1.02e-25
  4.5237e+04   9.77e-26
  4.6958e+04   9.36e-26
  4.8744e+04   8.97e-26
  5.0598e+04   8.60e-26
  5.2523e+04   8.24e-26
  5.4521e+04   7.89e-26
  5.6596e+04   7.56e-26
  5.8749e+04   7.24e-26
  6.0984e+04   6.94e-26
  6.3304e+04   6.64e-26
  6.5712e+04   6.36e-26
  6.8212e+04   6.09e-26
  7.0807e+04   5.83e-26
  7.3500e+04   5.57e-26
  7.6297e+04   5.34e-26
  7.9199e+04   5.10e-26
  8.2212e+04   4.88e-26
  8.5340e+04   4.67e-26
  8.8586e+04   4.46e-26
  9.1956e+04   4.27e-26
  9.5455e+04   4.08e-26
  9.9086e+04   3.90e-26
  1.0286e+05   3.72e-26
  1.0677e+05   3.56e-26
  1.1083e+05   3.40e-26
  1.1505e+05   3.24e-26
  1.1942e+05   3.09e-26
  1.2397e+05   2.95e-26
  1.2868e+05   2.82e-26
  1.3358e+05   2.69e-26
  1.3866e+05   2.56e-26
  1.4394e+05   2.44e-26
  1.4941e+05   2.33e-26
  1.5509e+05   2.22e-26
  1.6100e+05   2.11e-26
  1.6712e+05   2.01e-26
  1.7348e+05   1.91e-26
  1.8008e+05   1.82e-26
  1.8693e+05   1.73e-26
  1.9404e+05   1.64e-26
  2.0142e+05   1.56e-26
  2.0908e+05   1.48e-26
  2.1704e+05   1.40e-26
  2.2529e+05   1.33e-26
  2.3387e+05   1.26e-26
  2.4276e+05   1.19e-26
  2.5200e+05   1.13e-26
  2.6158e+05   1.07e-26
  2.7154e+05   1.01e-26
  2.8187e+05   9.56e-27
  2.9259e+05   9.03e-27
  3.0372e+05   8.53e-27
  3.1527e+05   8.04e-27
  3.2727e+05   7.58e-27
  3.3972e+05   7.13e-27
  3.5264e+05   6.71e-27
  3.6606e+05   6.31e-27
  3.7998e+05   5.93e-27
  3.9444e+05   5.57e-27
  4.0945e+05   5.22e-27
  4.2502e+05   4.90e-27
  4.4119e+05   4.59e-27
  4.5798e+05   4.29e-27
  4.7540e+05   4.02e-27
  4.9348e+05   3.76e-27
  5.1226e+05   3.51e-27
  5.3175e+05   3.28e-27
  5.5198e+05   3.06e-27
  5.7297e+05   2.85e-27
  5.9477e+05   2.65e-27
  6.1740e+05   2.47e-27
  6.4089e+05   2.30e-27
  6.6527e+05   2.14e-27
  6.9058e+05   1.98e-27
  7.1685e+05   1.84e-27
  7.4412e+05   1.71e-27
  7.7243e+05   1.59e-27
  8.0181e+05   1.47e-27
  8.3232e+05   1.37e-27
  8.6398e+05   1.27e-27
  8.9685e+05   1.17e-27
  9.3097e+05   1.09e-27
  9.6638e+05   1.01e-27
  1.0031e+06   9.32e-28
  1.0413e+06   8.62e-28
  1.0809e+06   7.98e-28
  1.1220e+06   7.38e-28
  1.1647e+06   6.83e-28
  1.2090e+06   6.31e-28
  1.2550e+06   5.84e-28
  1.3028e+06   5.39e-28
  1.3523e+06   4.98e-28
  1.4038e+06   4.60e-28
  1.4572e+06   4.25e-28
  1.5126e+06   3.92e-28
  1.5702e+06   3.62e-28
  1.6299e+06   3.34e-28
  1.6919e+06   3.08e-28
  1.7563e+06   2.85e-28
  1.8231e+06   2.62e-28
  1.8925e+06   2.42e-28
  1.9645e+06   2.23e-28
  2.0392e+06   2.05e-28
  2.1168e+06   1.89e-28
  2.1973e+06   1.74e-28
  2.2809e+06   1.60e-28
  2.3677e+06   1.47e-28
  2.4577e+06   1.35e-28
  2.5512e+06   1.24e-28
  2.6483e+06   1.14e-28
  2.7490e+06   1.04e-28
  2.8536e+06   9.55e-29
  2.9622e+06   8.73e-29
  3.0749e+06   7.98e-29
  3.1918e+06   7.30e-29
  3.3133e+06   6.65e-29
  3.4393e+06   6.06e-29
  3.5702e+06   5.52e-29
  3.7060e+06   5.02e-29
  3.8470e+06   4.55e-29
  3.9933e+06   4.14e-29
  4.1452e+06   3.75e-29
  4.3029e+06   3.38e-29
  4.4666e+06   3.06e-29
  4.6366e+06   2.76e-29
  4.8129e+06   2.48e-29
  4.9960e+06   2.23e-29
  5.1861e+06   2.00e-29
  5.3834e+06   1.79e-29
  5.5882e+06   1.60e-29
  5.8008e+06   1.43e-29
  6.0215e+06   1.27e-29
  6.2506e+06   1.13e-29
  6.4883e+06   9.97e-30
  6.7352e+06   8.78e-30
  6.9914e+06   7.74e-30
  7.2574e+06   6.80e-30
  7.5335e+06   5.93e-30
  7.8201e+06   5.18e-30
  8.1176e+06   4.51e-30
  8.4264e+06   3.89e-30
  8.7470e+06   3.36e-30
  9.0797e+06   2.88e-30
  9.4251e+06   2.46e-30
  9.7837e+06   2.09e-30
  1.0156e+07   1.77e-30
  1.0542e+07   1.49e-30
  1.0943e+07   1.24e-30
  1.1360e+07   1.03e-30
  1.1792e+07   8.48e-31
  1.2240e+07   6.91e-31
  1.2706e+07   5.62e-31
  1.3189e+07   4.50e-31
  1.3691e+07   3.56e-31
  1.4212e+07   2.80e-31
  1.4753e+07   2.17e-31
  1.5314e+07   1.65e-31
  1.5897e+07   1.24e-31
  1.6501e+07   9.13e-32
  1.7129e+07   6.56e-32
  1.7781e+07   4.64e-32
  1.8457e+07   3.18e-32
  1.9159e+07   2.10e-32
  1.9888e+07   1.36e-32
  2.0645e+07   8.42e-33
  2.1430e+07   4.94e-33
  2.2245e+07   2.77e-33
  2.3092e+07   1.45e-33
  2.3970e+07   7.03e-34
  2.4882e+07   3.15e-34
  2.5829e+07   1.27e-34
  2.6811e+07   4.48e-35
  2.7831e+07   1.38e-35
  2.8890e+07   3.54e-36
  2.9989e+07   7.33e-37
  3.1130e+07   1.19e-37
  3.2314e+07   1.41e-38
  3.3544e+07   1.14e-39
  3.4820e+07   5.84e-41
  3.6144e+07   1.68e-42
  3.7519e+07   2.34e-44
  3.8947e+07   1.36e-46
  4.0428e+07   2.60e-49
  4.1966e+07   1.14e-52
  4.3563e+07   8.64e-57
  4.5220e+07   6.47e-62
  4.6941e+07   2.00e-68
  4.8726e+07   2.17e-70
  5.0580e+07   2.73e-70
