#  E [GeV]   # per interaction  [GeV^{-1}]
  3.0000e+01   3.73e-01
  3.0872e+01   3.61e-01
  3.1770e+01   3.49e-01
  3.2694e+01   3.37e-01
  3.3644e+01   3.26e-01
  3.4623e+01   3.15e-01
  3.5629e+01   3.04e-01
  3.6665e+01   2.94e-01
  3.7731e+01   2.84e-01
  3.8829e+01   2.74e-01
  3.9958e+01   2.64e-01
  4.1119e+01   2.55e-01
  4.2315e+01   2.46e-01
  4.3545e+01   2.38e-01
  4.4812e+01   2.29e-01
  4.6115e+01   2.21e-01
  4.7456e+01   2.13e-01
  4.8835e+01   2.06e-01
  5.0255e+01   1.98e-01
  5.1717e+01   1.91e-01
  5.3220e+01   1.84e-01
  5.4768e+01   1.77e-01
  5.6360e+01   1.71e-01
  5.7999e+01   1.64e-01
  5.9686e+01   1.58e-01
  6.1421e+01   1.52e-01
  6.3207e+01   1.46e-01
  6.5045e+01   1.41e-01
  6.6936e+01   1.35e-01
  6.8882e+01   1.30e-01
  7.0885e+01   1.25e-01
  7.2947e+01   1.20e-01
  7.5068e+01   1.15e-01
  7.7250e+01   1.11e-01
  7.9496e+01   1.07e-01
  8.1808e+01   1.02e-01
  8.4187e+01   9.82e-02
  8.6635e+01   9.42e-02
  8.9154e+01   9.04e-02
  9.1746e+01   8.67e-02
  9.4414e+01   8.31e-02
  9.7159e+01   7.97e-02
  9.9984e+01   7.64e-02
  1.0289e+02   7.32e-02
  1.0588e+02   7.01e-02
  1.0896e+02   6.71e-02
  1.1213e+02   6.43e-02
  1.1539e+02   6.15e-02
  1.1875e+02   5.89e-02
  1.2220e+02   5.63e-02
  1.2575e+02   5.38e-02
  1.2941e+02   5.15e-02
  1.3317e+02   4.92e-02
  1.3704e+02   4.70e-02
  1.4103e+02   4.49e-02
  1.4513e+02   4.29e-02
  1.4935e+02   4.09e-02
  1.5369e+02   3.91e-02
  1.5816e+02   3.73e-02
  1.6276e+02   3.56e-02
  1.6749e+02   3.39e-02
  1.7236e+02   3.24e-02
  1.7737e+02   3.08e-02
  1.8253e+02   2.94e-02
  1.8784e+02   2.80e-02
  1.9330e+02   2.67e-02
  1.9892e+02   2.54e-02
  2.0470e+02   2.42e-02
  2.1066e+02   2.30e-02
  2.1678e+02   2.19e-02
  2.2309e+02   2.08e-02
  2.2957e+02   1.98e-02
  2.3625e+02   1.88e-02
  2.4312e+02   1.79e-02
  2.5019e+02   1.70e-02
  2.5746e+02   1.61e-02
  2.6495e+02   1.53e-02
  2.7265e+02   1.45e-02
  2.8058e+02   1.37e-02
  2.8874e+02   1.30e-02
  2.9713e+02   1.23e-02
  3.0577e+02   1.17e-02
  3.1466e+02   1.11e-02
  3.2381e+02   1.05e-02
  3.3323e+02   9.92e-03
  3.4292e+02   9.38e-03
  3.5289e+02   8.87e-03
  3.6315e+02   8.39e-03
  3.7371e+02   7.93e-03
  3.8457e+02   7.48e-03
  3.9576e+02   7.06e-03
  4.0726e+02   6.67e-03
  4.1911e+02   6.30e-03
  4.3129e+02   5.94e-03
  4.4383e+02   5.59e-03
  4.5674e+02   5.27e-03
  4.7002e+02   4.97e-03
  4.8368e+02   4.67e-03
  4.9775e+02   4.39e-03
  5.1222e+02   4.13e-03
  5.2712e+02   3.89e-03
  5.4244e+02   3.65e-03
  5.5821e+02   3.43e-03
  5.7445e+02   3.22e-03
  5.9115e+02   3.03e-03
  6.0834e+02   2.84e-03
  6.2603e+02   2.66e-03
  6.4423e+02   2.49e-03
  6.6296e+02   2.34e-03
  6.8224e+02   2.19e-03
  7.0208e+02   2.05e-03
  7.2249e+02   1.92e-03
  7.4350e+02   1.79e-03
  7.6512e+02   1.68e-03
  7.8736e+02   1.56e-03
  8.1026e+02   1.46e-03
  8.3382e+02   1.37e-03
  8.5806e+02   1.27e-03
  8.8301e+02   1.19e-03
  9.0869e+02   1.11e-03
  9.3511e+02   1.03e-03
  9.6230e+02   9.62e-04
  9.9028e+02   8.93e-04
  1.0191e+03   8.32e-04
  1.0487e+03   7.75e-04
  1.0792e+03   7.19e-04
  1.1106e+03   6.67e-04
  1.1429e+03   6.20e-04
  1.1761e+03   5.76e-04
  1.2103e+03   5.34e-04
  1.2455e+03   4.94e-04
  1.2817e+03   4.58e-04
  1.3190e+03   4.25e-04
  1.3573e+03   3.93e-04
  1.3968e+03   3.63e-04
  1.4374e+03   3.36e-04
  1.4792e+03   3.11e-04
  1.5222e+03   2.87e-04
  1.5665e+03   2.65e-04
  1.6120e+03   2.45e-04
  1.6589e+03   2.26e-04
  1.7071e+03   2.08e-04
  1.7568e+03   1.91e-04
  1.8079e+03   1.76e-04
  1.8604e+03   1.63e-04
  1.9145e+03   1.50e-04
  1.9702e+03   1.37e-04
  2.0275e+03   1.26e-04
  2.0864e+03   1.16e-04
  2.1471e+03   1.07e-04
  2.2095e+03   9.77e-05
  2.2738e+03   8.98e-05
  2.3399e+03   8.26e-05
  2.4079e+03   7.58e-05
  2.4779e+03   6.93e-05
  2.5500e+03   6.37e-05
  2.6241e+03   5.86e-05
  2.7004e+03   5.37e-05
  2.7790e+03   4.91e-05
  2.8598e+03   4.51e-05
  2.9429e+03   4.16e-05
  3.0285e+03   3.81e-05
  3.1165e+03   3.49e-05
  3.2072e+03   3.22e-05
  3.3004e+03   2.97e-05
  3.3964e+03   2.73e-05
  3.4951e+03   2.51e-05
  3.5968e+03   2.32e-05
  3.7013e+03   2.16e-05
  3.8090e+03   2.00e-05
  3.9197e+03   1.85e-05
  4.0337e+03   1.72e-05
  4.1510e+03   1.62e-05
  4.2717e+03   1.51e-05
  4.3959e+03   1.41e-05
  4.5237e+03   1.33e-05
  4.6552e+03   1.26e-05
  4.7906e+03   1.20e-05
  4.9299e+03   1.14e-05
  5.0732e+03   1.09e-05
  5.2208e+03   1.04e-05
  5.3726e+03   1.00e-05
  5.5288e+03   9.64e-06
  5.6895e+03   9.40e-06
  5.8550e+03   9.25e-06
  6.0252e+03   9.10e-06
  6.2004e+03   8.95e-06
  6.3807e+03   8.96e-06
  6.5662e+03   9.07e-06
  6.7572e+03   9.15e-06
  6.9536e+03   9.23e-06
  7.1558e+03   9.65e-06
  7.3639e+03   1.03e-05
  7.5780e+03   1.08e-05
  7.7984e+03   1.14e-05
  8.0251e+03   1.28e-05
  8.2585e+03   1.48e-05
  8.4986e+03   1.67e-05
  8.7457e+03   1.84e-05
  9.0000e+03   1.83e-05
