#  E [MeV]   Flux [# cm^{-2} s^{-1}  MeV^{-1}]
  3.0000e+04   3.32e-23
  3.0782e+04   3.20e-23
  3.1585e+04   3.08e-23
  3.2409e+04   2.97e-23
  3.3255e+04   2.86e-23
  3.4122e+04   2.75e-23
  3.5012e+04   2.65e-23
  3.5925e+04   2.55e-23
  3.6862e+04   2.45e-23
  3.7824e+04   2.36e-23
  3.8810e+04   2.27e-23
  3.9822e+04   2.18e-23
  4.0861e+04   2.09e-23
  4.1927e+04   2.01e-23
  4.3021e+04   1.93e-23
  4.4143e+04   1.86e-23
  4.5294e+04   1.78e-23
  4.6475e+04   1.71e-23
  4.7688e+04   1.64e-23
  4.8931e+04   1.58e-23
  5.0208e+04   1.51e-23
  5.1517e+04   1.45e-23
  5.2861e+04   1.39e-23
  5.4240e+04   1.34e-23
  5.5654e+04   1.28e-23
  5.7106e+04   1.23e-23
  5.8596e+04   1.18e-23
  6.0124e+04   1.13e-23
  6.1692e+04   1.08e-23
  6.3301e+04   1.04e-23
  6.4952e+04   9.92e-24
  6.6647e+04   9.50e-24
  6.8385e+04   9.09e-24
  7.0169e+04   8.70e-24
  7.1999e+04   8.33e-24
  7.3877e+04   7.97e-24
  7.5804e+04   7.62e-24
  7.7781e+04   7.29e-24
  7.9810e+04   6.97e-24
  8.1891e+04   6.66e-24
  8.4027e+04   6.37e-24
  8.6219e+04   6.08e-24
  8.8468e+04   5.81e-24
  9.0775e+04   5.55e-24
  9.3143e+04   5.30e-24
  9.5572e+04   5.05e-24
  9.8065e+04   4.82e-24
  1.0062e+05   4.60e-24
  1.0325e+05   4.39e-24
  1.0594e+05   4.18e-24
  1.0870e+05   3.98e-24
  1.1154e+05   3.79e-24
  1.1445e+05   3.61e-24
  1.1743e+05   3.44e-24
  1.2050e+05   3.28e-24
  1.2364e+05   3.12e-24
  1.2686e+05   2.96e-24
  1.3017e+05   2.82e-24
  1.3357e+05   2.68e-24
  1.3705e+05   2.54e-24
  1.4063e+05   2.41e-24
  1.4429e+05   2.29e-24
  1.4806e+05   2.18e-24
  1.5192e+05   2.06e-24
  1.5588e+05   1.95e-24
  1.5995e+05   1.85e-24
  1.6412e+05   1.76e-24
  1.6840e+05   1.66e-24
  1.7279e+05   1.57e-24
  1.7730e+05   1.49e-24
  1.8193e+05   1.41e-24
  1.8667e+05   1.33e-24
  1.9154e+05   1.26e-24
  1.9654e+05   1.19e-24
  2.0166e+05   1.12e-24
  2.0692e+05   1.06e-24
  2.1232e+05   1.00e-24
  2.1786e+05   9.44e-25
  2.2354e+05   8.90e-25
  2.2937e+05   8.40e-25
  2.3535e+05   7.91e-25
  2.4149e+05   7.44e-25
  2.4779e+05   7.00e-25
  2.5425e+05   6.58e-25
  2.6088e+05   6.19e-25
  2.6769e+05   5.81e-25
  2.7467e+05   5.45e-25
  2.8184e+05   5.11e-25
  2.8919e+05   4.80e-25
  2.9673e+05   4.50e-25
  3.0447e+05   4.21e-25
  3.1241e+05   3.93e-25
  3.2056e+05   3.69e-25
  3.2892e+05   3.45e-25
  3.3750e+05   3.22e-25
  3.4630e+05   3.01e-25
  3.5533e+05   2.81e-25
  3.6460e+05   2.62e-25
  3.7411e+05   2.45e-25
  3.8387e+05   2.28e-25
  3.9388e+05   2.12e-25
  4.0416e+05   1.97e-25
  4.1470e+05   1.84e-25
  4.2551e+05   1.71e-25
  4.3661e+05   1.59e-25
  4.4800e+05   1.47e-25
  4.5969e+05   1.37e-25
  4.7168e+05   1.27e-25
  4.8398e+05   1.18e-25
  4.9660e+05   1.09e-25
  5.0956e+05   1.01e-25
  5.2285e+05   9.34e-26
  5.3648e+05   8.62e-26
  5.5048e+05   7.94e-26
  5.6483e+05   7.33e-26
  5.7957e+05   6.78e-26
  5.9468e+05   6.25e-26
  6.1020e+05   5.75e-26
  6.2611e+05   5.27e-26
  6.4244e+05   4.87e-26
  6.5920e+05   4.49e-26
  6.7639e+05   4.12e-26
  6.9403e+05   3.77e-26
  7.1214e+05   3.46e-26
  7.3071e+05   3.19e-26
  7.4977e+05   2.92e-26
  7.6933e+05   2.67e-26
  7.8939e+05   2.43e-26
  8.0998e+05   2.24e-26
  8.3111e+05   2.05e-26
  8.5279e+05   1.87e-26
  8.7503e+05   1.70e-26
  8.9785e+05   1.55e-26
  9.2127e+05   1.42e-26
  9.4530e+05   1.30e-26
  9.6996e+05   1.18e-26
  9.9526e+05   1.07e-26
  1.0212e+06   9.77e-27
  1.0479e+06   8.91e-27
  1.0752e+06   8.08e-27
  1.1032e+06   7.29e-27
  1.1320e+06   6.64e-27
  1.1615e+06   6.05e-27
  1.1918e+06   5.49e-27
  1.2229e+06   4.95e-27
  1.2548e+06   4.47e-27
  1.2875e+06   4.07e-27
  1.3211e+06   3.70e-27
  1.3556e+06   3.34e-27
  1.3909e+06   3.00e-27
  1.4272e+06   2.72e-27
  1.4644e+06   2.48e-27
  1.5026e+06   2.24e-27
  1.5418e+06   2.02e-27
  1.5820e+06   1.82e-27
  1.6233e+06   1.65e-27
  1.6657e+06   1.50e-27
  1.7091e+06   1.35e-27
  1.7537e+06   1.21e-27
  1.7994e+06   1.11e-27
  1.8464e+06   1.01e-27
  1.8945e+06   9.12e-28
  1.9439e+06   8.21e-28
  1.9946e+06   7.43e-28
  2.0467e+06   6.80e-28
  2.1000e+06   6.20e-28
  2.1548e+06   5.63e-28
  2.2110e+06   5.08e-28
  2.2687e+06   4.66e-28
  2.3279e+06   4.28e-28
  2.3886e+06   3.91e-28
  2.4509e+06   3.56e-28
  2.5148e+06   3.26e-28
  2.5804e+06   3.01e-28
  2.6477e+06   2.78e-28
  2.7168e+06   2.55e-28
  2.7876e+06   2.34e-28
  2.8603e+06   2.17e-28
  2.9349e+06   2.02e-28
  3.0115e+06   1.87e-28
  3.0900e+06   1.72e-28
  3.1706e+06   1.60e-28
  3.2533e+06   1.49e-28
  3.3382e+06   1.39e-28
  3.4253e+06   1.29e-28
  3.5146e+06   1.20e-28
  3.6063e+06   1.13e-28
  3.7003e+06   1.05e-28
  3.7969e+06   9.85e-29
  3.8959e+06   9.18e-29
  3.9975e+06   8.57e-29
  4.1018e+06   7.99e-29
  4.2088e+06   7.44e-29
  4.3185e+06   6.92e-29
  4.4312e+06   6.41e-29
  4.5467e+06   5.95e-29
  4.6653e+06   5.51e-29
  4.7870e+06   5.08e-29
  4.9119e+06   4.68e-29
  5.0400e+06   4.35e-29
