#  E [MeV]   Flux [# cm^{-2} s^{-1}  MeV^{-1}]
  3.0000e+04   5.57e-27
  3.1232e+04   5.35e-27
  3.2514e+04   5.14e-27
  3.3849e+04   4.94e-27
  3.5238e+04   4.75e-27
  3.6685e+04   4.56e-27
  3.8191e+04   4.38e-27
  3.9759e+04   4.21e-27
  4.1391e+04   4.04e-27
  4.3090e+04   3.88e-27
  4.4859e+04   3.72e-27
  4.6701e+04   3.57e-27
  4.8618e+04   3.43e-27
  5.0614e+04   3.29e-27
  5.2692e+04   3.15e-27
  5.4855e+04   3.02e-27
  5.7107e+04   2.90e-27
  5.9451e+04   2.77e-27
  6.1892e+04   2.66e-27
  6.4433e+04   2.54e-27
  6.7078e+04   2.44e-27
  6.9832e+04   2.33e-27
  7.2699e+04   2.23e-27
  7.5683e+04   2.14e-27
  7.8790e+04   2.04e-27
  8.2025e+04   1.95e-27
  8.5392e+04   1.87e-27
  8.8898e+04   1.78e-27
  9.2547e+04   1.70e-27
  9.6347e+04   1.63e-27
  1.0030e+05   1.55e-27
  1.0442e+05   1.48e-27
  1.0871e+05   1.42e-27
  1.1317e+05   1.35e-27
  1.1782e+05   1.29e-27
  1.2265e+05   1.23e-27
  1.2769e+05   1.17e-27
  1.3293e+05   1.11e-27
  1.3839e+05   1.06e-27
  1.4407e+05   1.01e-27
  1.4998e+05   9.61e-28
  1.5614e+05   9.14e-28
  1.6255e+05   8.69e-28
  1.6922e+05   8.26e-28
  1.7617e+05   7.85e-28
  1.8340e+05   7.45e-28
  1.9093e+05   7.07e-28
  1.9877e+05   6.71e-28
  2.0693e+05   6.36e-28
  2.1543e+05   6.03e-28
  2.2427e+05   5.71e-28
  2.3348e+05   5.40e-28
  2.4306e+05   5.11e-28
  2.5304e+05   4.83e-28
  2.6343e+05   4.57e-28
  2.7424e+05   4.31e-28
  2.8550e+05   4.07e-28
  2.9722e+05   3.84e-28
  3.0942e+05   3.62e-28
  3.2213e+05   3.41e-28
  3.3535e+05   3.21e-28
  3.4912e+05   3.02e-28
  3.6345e+05   2.84e-28
  3.7837e+05   2.66e-28
  3.9390e+05   2.50e-28
  4.1008e+05   2.35e-28
  4.2691e+05   2.20e-28
  4.4444e+05   2.06e-28
  4.6268e+05   1.93e-28
  4.8168e+05   1.81e-28
  5.0145e+05   1.69e-28
  5.2204e+05   1.59e-28
  5.4347e+05   1.48e-28
  5.6578e+05   1.39e-28
  5.8901e+05   1.30e-28
  6.1319e+05   1.21e-28
  6.3836e+05   1.13e-28
  6.6457e+05   1.06e-28
  6.9185e+05   9.89e-29
  7.2025e+05   9.25e-29
  7.4982e+05   8.64e-29
  7.8061e+05   8.09e-29
  8.1265e+05   7.57e-29
  8.4601e+05   7.09e-29
  8.8075e+05   6.64e-29
  9.1690e+05   6.23e-29
  9.5455e+05   5.84e-29
  9.9373e+05   5.49e-29
  1.0345e+06   5.16e-29
  1.0770e+06   4.85e-29
  1.1212e+06   4.57e-29
  1.1672e+06   4.30e-29
  1.2152e+06   4.06e-29
  1.2650e+06   3.83e-29
  1.3170e+06   3.62e-29
  1.3711e+06   3.43e-29
  1.4273e+06   3.25e-29
  1.4859e+06   3.08e-29
  1.5469e+06   2.93e-29
  1.6104e+06   2.78e-29
  1.6766e+06   2.64e-29
  1.7454e+06   2.52e-29
  1.8170e+06   2.40e-29
  1.8916e+06   2.29e-29
  1.9693e+06   2.18e-29
  2.0501e+06   2.09e-29
  2.1343e+06   1.99e-29
  2.2219e+06   1.91e-29
  2.3131e+06   1.83e-29
  2.4081e+06   1.75e-29
  2.5070e+06   1.68e-29
  2.6099e+06   1.60e-29
  2.7170e+06   1.54e-29
  2.8286e+06   1.47e-29
  2.9447e+06   1.41e-29
  3.0656e+06   1.35e-29
  3.1914e+06   1.29e-29
  3.3225e+06   1.24e-29
  3.4589e+06   1.18e-29
  3.6008e+06   1.13e-29
  3.7487e+06   1.08e-29
  3.9026e+06   1.03e-29
  4.0628e+06   9.83e-30
  4.2296e+06   9.35e-30
  4.4032e+06   8.89e-30
  4.5840e+06   8.44e-30
  4.7722e+06   8.00e-30
  4.9681e+06   7.57e-30
  5.1720e+06   7.14e-30
  5.3844e+06   6.73e-30
  5.6054e+06   6.32e-30
  5.8355e+06   5.92e-30
  6.0751e+06   5.52e-30
  6.3245e+06   5.14e-30
  6.5841e+06   4.77e-30
  6.8544e+06   4.40e-30
  7.1358e+06   4.05e-30
  7.4288e+06   3.70e-30
  7.7338e+06   3.37e-30
  8.0513e+06   3.05e-30
  8.3818e+06   2.75e-30
  8.7259e+06   2.46e-30
  9.0841e+06   2.18e-30
  9.4571e+06   1.92e-30
  9.8453e+06   1.67e-30
  1.0249e+07   1.44e-30
  1.0670e+07   1.23e-30
  1.1108e+07   1.04e-30
  1.1564e+07   8.65e-31
  1.2039e+07   7.10e-31
  1.2533e+07   5.72e-31
  1.3048e+07   4.54e-31
  1.3584e+07   3.52e-31
  1.4141e+07   2.67e-31
  1.4722e+07   1.97e-31
  1.5326e+07   1.41e-31
  1.5955e+07   9.81e-32
  1.6610e+07   6.57e-32
  1.7292e+07   4.20e-32
  1.8002e+07   2.56e-32
  1.8741e+07   1.48e-32
  1.9511e+07   7.98e-33
  2.0312e+07   4.00e-33
  2.1145e+07   1.85e-33
  2.2013e+07   7.69e-34
  2.2917e+07   2.85e-34
  2.3858e+07   9.24e-35
  2.4837e+07   2.54e-35
  2.5857e+07   5.77e-36
  2.6919e+07   1.05e-36
  2.8024e+07   1.44e-37
  2.9174e+07   1.43e-38
  3.0372e+07   9.55e-40
  3.1619e+07   3.93e-41
  3.2917e+07   8.94e-43
  3.4268e+07   9.78e-45
  3.5675e+07   4.31e-47
  3.7140e+07   6.09e-50
  3.8664e+07   2.06e-53
  4.0252e+07   1.12e-57
  4.1904e+07   5.96e-63
  4.3624e+07   1.55e-69
  4.5415e+07   9.58e-71
  4.7280e+07   8.45e-71
  4.9221e+07   7.47e-71
  5.1241e+07   6.56e-71
  5.3345e+07   5.71e-71
  5.5535e+07   4.98e-71
  5.7815e+07   4.31e-71
  6.0188e+07   3.70e-71
  6.2659e+07   3.20e-71
  6.5232e+07   2.73e-71
  6.7910e+07   2.33e-71
  7.0698e+07   2.01e-71
  7.3600e+07   1.71e-71
  7.6621e+07   1.48e-71
  7.9767e+07   1.29e-71
  8.3042e+07   1.12e-71
  8.6451e+07   1.00e-71
  9.0000e+07   9.15e-72
