#  E [GeV]   # per interaction  [GeV^{-1}]
  3.0000e+01   6.67e-01
  3.1141e+01   6.41e-01
  3.2326e+01   6.16e-01
  3.3556e+01   5.92e-01
  3.4832e+01   5.69e-01
  3.6157e+01   5.46e-01
  3.7533e+01   5.25e-01
  3.8961e+01   5.04e-01
  4.0443e+01   4.84e-01
  4.1982e+01   4.65e-01
  4.3579e+01   4.47e-01
  4.5237e+01   4.29e-01
  4.6958e+01   4.12e-01
  4.8744e+01   3.96e-01
  5.0598e+01   3.80e-01
  5.2523e+01   3.65e-01
  5.4521e+01   3.50e-01
  5.6596e+01   3.36e-01
  5.8749e+01   3.23e-01
  6.0984e+01   3.10e-01
  6.3304e+01   2.97e-01
  6.5712e+01   2.85e-01
  6.8212e+01   2.74e-01
  7.0807e+01   2.62e-01
  7.3500e+01   2.52e-01
  7.6297e+01   2.41e-01
  7.9199e+01   2.31e-01
  8.2212e+01   2.22e-01
  8.5340e+01   2.13e-01
  8.8586e+01   2.04e-01
  9.1956e+01   1.95e-01
  9.5455e+01   1.87e-01
  9.9086e+01   1.79e-01
  1.0286e+02   1.71e-01
  1.0677e+02   1.64e-01
  1.1083e+02   1.57e-01
  1.1505e+02   1.50e-01
  1.1942e+02   1.44e-01
  1.2397e+02   1.38e-01
  1.2868e+02   1.32e-01
  1.3358e+02   1.26e-01
  1.3866e+02   1.20e-01
  1.4394e+02   1.15e-01
  1.4941e+02   1.10e-01
  1.5509e+02   1.05e-01
  1.6100e+02   9.99e-02
  1.6712e+02   9.53e-02
  1.7348e+02   9.09e-02
  1.8008e+02   8.66e-02
  1.8693e+02   8.26e-02
  1.9404e+02   7.86e-02
  2.0142e+02   7.49e-02
  2.0908e+02   7.13e-02
  2.1704e+02   6.78e-02
  2.2529e+02   6.45e-02
  2.3387e+02   6.13e-02
  2.4276e+02   5.82e-02
  2.5200e+02   5.53e-02
  2.6158e+02   5.25e-02
  2.7154e+02   4.98e-02
  2.8187e+02   4.72e-02
  2.9259e+02   4.47e-02
  3.0372e+02   4.23e-02
  3.1527e+02   4.01e-02
  3.2727e+02   3.79e-02
  3.3972e+02   3.58e-02
  3.5264e+02   3.38e-02
  3.6606e+02   3.19e-02
  3.7998e+02   3.01e-02
  3.9444e+02   2.83e-02
  4.0945e+02   2.67e-02
  4.2502e+02   2.51e-02
  4.4119e+02   2.36e-02
  4.5798e+02   2.22e-02
  4.7540e+02   2.09e-02
  4.9348e+02   1.96e-02
  5.1226e+02   1.84e-02
  5.3175e+02   1.72e-02
  5.5198e+02   1.61e-02
  5.7297e+02   1.51e-02
  5.9477e+02   1.41e-02
  6.1740e+02   1.32e-02
  6.4089e+02   1.23e-02
  6.6527e+02   1.15e-02
  6.9058e+02   1.08e-02
  7.1685e+02   1.00e-02
  7.4412e+02   9.35e-03
  7.7243e+02   8.70e-03
  8.0181e+02   8.11e-03
  8.3232e+02   7.55e-03
  8.6398e+02   7.02e-03
  8.9685e+02   6.53e-03
  9.3097e+02   6.07e-03
  9.6638e+02   5.64e-03
  1.0031e+03   5.23e-03
  1.0413e+03   4.86e-03
  1.0809e+03   4.51e-03
  1.1220e+03   4.18e-03
  1.1647e+03   3.88e-03
  1.2090e+03   3.59e-03
  1.2550e+03   3.33e-03
  1.3028e+03   3.08e-03
  1.3523e+03   2.85e-03
  1.4038e+03   2.63e-03
  1.4572e+03   2.43e-03
  1.5126e+03   2.25e-03
  1.5702e+03   2.07e-03
  1.6299e+03   1.91e-03
  1.6919e+03   1.76e-03
  1.7563e+03   1.63e-03
  1.8231e+03   1.50e-03
  1.8925e+03   1.38e-03
  1.9645e+03   1.27e-03
  2.0392e+03   1.17e-03
  2.1168e+03   1.07e-03
  2.1973e+03   9.84e-04
  2.2809e+03   9.04e-04
  2.3677e+03   8.28e-04
  2.4577e+03   7.58e-04
  2.5512e+03   6.95e-04
  2.6483e+03   6.35e-04
  2.7490e+03   5.79e-04
  2.8536e+03   5.29e-04
  2.9622e+03   4.82e-04
  3.0749e+03   4.39e-04
  3.1918e+03   4.00e-04
  3.3133e+03   3.63e-04
  3.4393e+03   3.29e-04
  3.5702e+03   2.99e-04
  3.7060e+03   2.71e-04
  3.8470e+03   2.45e-04
  3.9933e+03   2.21e-04
  4.1452e+03   2.00e-04
  4.3029e+03   1.80e-04
  4.4666e+03   1.62e-04
  4.6366e+03   1.46e-04
  4.8129e+03   1.30e-04
  4.9960e+03   1.17e-04
  5.1861e+03   1.04e-04
  5.3834e+03   9.31e-05
  5.5882e+03   8.29e-05
  5.8008e+03   7.38e-05
  6.0215e+03   6.54e-05
  6.2506e+03   5.79e-05
  6.4883e+03   5.13e-05
  6.7352e+03   4.52e-05
  6.9914e+03   3.97e-05
  7.2574e+03   3.50e-05
  7.5335e+03   3.06e-05
  7.8201e+03   2.66e-05
  8.1176e+03   2.33e-05
  8.4264e+03   2.02e-05
  8.7470e+03   1.74e-05
  9.0797e+03   1.51e-05
  9.4251e+03   1.30e-05
  9.7837e+03   1.11e-05
  1.0156e+04   9.53e-06
  1.0542e+04   8.10e-06
  1.0943e+04   6.81e-06
  1.1360e+04   5.77e-06
  1.1792e+04   4.84e-06
  1.2240e+04   4.01e-06
  1.2706e+04   3.34e-06
  1.3189e+04   2.75e-06
  1.3691e+04   2.23e-06
  1.4212e+04   1.81e-06
  1.4753e+04   1.46e-06
  1.5314e+04   1.15e-06
  1.5897e+04   9.09e-07
  1.6501e+04   7.08e-07
  1.7129e+04   5.40e-07
  1.7781e+04   4.09e-07
  1.8457e+04   3.05e-07
  1.9159e+04   2.21e-07
  1.9888e+04   1.57e-07
  2.0645e+04   1.10e-07
  2.1430e+04   7.38e-08
  2.2245e+04   4.81e-08
  2.3092e+04   3.04e-08
  2.3970e+04   1.82e-08
  2.4882e+04   1.03e-08
  2.5829e+04   5.60e-09
  2.6811e+04   2.80e-09
  2.7831e+04   1.28e-09
  2.8890e+04   5.42e-10
  2.9989e+04   2.01e-10
  3.1130e+04   6.45e-11
  3.2314e+04   1.78e-11
  3.3544e+04   3.96e-12
  3.4820e+04   6.76e-13
  3.6144e+04   8.65e-14
  3.7519e+04   7.44e-15
  3.8947e+04   3.92e-16
  4.0428e+04   1.16e-17
  4.1966e+04   1.58e-19
  4.3563e+04   8.12e-22
  4.5220e+04   1.21e-24
  4.6941e+04   3.61e-28
  4.8726e+04   1.30e-32
  5.0580e+04   2.99e-38
