#  E [GeV]   # per interaction  [GeV^{-1}]
  3.0000e+01   6.44e-01
  3.1141e+01   6.18e-01
  3.2326e+01   5.94e-01
  3.3556e+01   5.71e-01
  3.4832e+01   5.49e-01
  3.6157e+01   5.27e-01
  3.7533e+01   5.06e-01
  3.8961e+01   4.86e-01
  4.0443e+01   4.67e-01
  4.1982e+01   4.49e-01
  4.3579e+01   4.31e-01
  4.5237e+01   4.14e-01
  4.6958e+01   3.97e-01
  4.8744e+01   3.81e-01
  5.0598e+01   3.66e-01
  5.2523e+01   3.51e-01
  5.4521e+01   3.37e-01
  5.6596e+01   3.24e-01
  5.8749e+01   3.11e-01
  6.0984e+01   2.98e-01
  6.3304e+01   2.86e-01
  6.5712e+01   2.74e-01
  6.8212e+01   2.63e-01
  7.0807e+01   2.52e-01
  7.3500e+01   2.42e-01
  7.6297e+01   2.32e-01
  7.9199e+01   2.22e-01
  8.2212e+01   2.13e-01
  8.5340e+01   2.04e-01
  8.8586e+01   1.95e-01
  9.1956e+01   1.87e-01
  9.5455e+01   1.79e-01
  9.9086e+01   1.71e-01
  1.0286e+02   1.64e-01
  1.0677e+02   1.57e-01
  1.1083e+02   1.50e-01
  1.1505e+02   1.43e-01
  1.1942e+02   1.37e-01
  1.2397e+02   1.31e-01
  1.2868e+02   1.25e-01
  1.3358e+02   1.19e-01
  1.3866e+02   1.14e-01
  1.4394e+02   1.09e-01
  1.4941e+02   1.04e-01
  1.5509e+02   9.87e-02
  1.6100e+02   9.40e-02
  1.6712e+02   8.95e-02
  1.7348e+02   8.52e-02
  1.8008e+02   8.10e-02
  1.8693e+02   7.70e-02
  1.9404e+02   7.32e-02
  2.0142e+02   6.95e-02
  2.0908e+02   6.59e-02
  2.1704e+02   6.25e-02
  2.2529e+02   5.93e-02
  2.3387e+02   5.61e-02
  2.4276e+02   5.31e-02
  2.5200e+02   5.02e-02
  2.6158e+02   4.75e-02
  2.7154e+02   4.48e-02
  2.8187e+02   4.23e-02
  2.9259e+02   3.99e-02
  3.0372e+02   3.75e-02
  3.1527e+02   3.53e-02
  3.2727e+02   3.32e-02
  3.3972e+02   3.12e-02
  3.5264e+02   2.92e-02
  3.6606e+02   2.74e-02
  3.7998e+02   2.56e-02
  3.9444e+02   2.40e-02
  4.0945e+02   2.24e-02
  4.2502e+02   2.09e-02
  4.4119e+02   1.95e-02
  4.5798e+02   1.81e-02
  4.7540e+02   1.69e-02
  4.9348e+02   1.57e-02
  5.1226e+02   1.46e-02
  5.3175e+02   1.35e-02
  5.5198e+02   1.25e-02
  5.7297e+02   1.16e-02
  5.9477e+02   1.07e-02
  6.1740e+02   9.94e-03
  6.4089e+02   9.18e-03
  6.6527e+02   8.47e-03
  6.9058e+02   7.81e-03
  7.1685e+02   7.20e-03
  7.4412e+02   6.64e-03
  7.7243e+02   6.11e-03
  8.0181e+02   5.63e-03
  8.3232e+02   5.18e-03
  8.6398e+02   4.76e-03
  8.9685e+02   4.38e-03
  9.3097e+02   4.02e-03
  9.6638e+02   3.70e-03
  1.0031e+03   3.40e-03
  1.0413e+03   3.12e-03
  1.0809e+03   2.86e-03
  1.1220e+03   2.63e-03
  1.1647e+03   2.41e-03
  1.2090e+03   2.21e-03
  1.2550e+03   2.03e-03
  1.3028e+03   1.86e-03
  1.3523e+03   1.71e-03
  1.4038e+03   1.57e-03
  1.4572e+03   1.43e-03
  1.5126e+03   1.31e-03
  1.5702e+03   1.20e-03
  1.6299e+03   1.10e-03
  1.6919e+03   1.01e-03
  1.7563e+03   9.24e-04
  1.8231e+03   8.46e-04
  1.8925e+03   7.73e-04
  1.9645e+03   7.07e-04
  2.0392e+03   6.46e-04
  2.1168e+03   5.89e-04
  2.1973e+03   5.38e-04
  2.2809e+03   4.91e-04
  2.3677e+03   4.47e-04
  2.4577e+03   4.07e-04
  2.5512e+03   3.70e-04
  2.6483e+03   3.36e-04
  2.7490e+03   3.05e-04
  2.8536e+03   2.76e-04
  2.9622e+03   2.50e-04
  3.0749e+03   2.26e-04
  3.1918e+03   2.04e-04
  3.3133e+03   1.84e-04
  3.4393e+03   1.66e-04
  3.5702e+03   1.49e-04
  3.7060e+03   1.34e-04
  3.8470e+03   1.20e-04
  3.9933e+03   1.07e-04
  4.1452e+03   9.55e-05
  4.3029e+03   8.51e-05
  4.4666e+03   7.57e-05
  4.6366e+03   6.70e-05
  4.8129e+03   5.92e-05
  4.9960e+03   5.23e-05
  5.1861e+03   4.59e-05
  5.3834e+03   4.02e-05
  5.5882e+03   3.52e-05
  5.8008e+03   3.07e-05
  6.0215e+03   2.66e-05
  6.2506e+03   2.31e-05
  6.4883e+03   1.98e-05
  6.7352e+03   1.70e-05
  6.9914e+03   1.46e-05
  7.2574e+03   1.24e-05
  7.5335e+03   1.04e-05
  7.8201e+03   8.84e-06
  8.1176e+03   7.40e-06
  8.4264e+03   6.13e-06
  8.7470e+03   5.10e-06
  9.0797e+03   4.19e-06
  9.4251e+03   3.39e-06
  9.7837e+03   2.76e-06
  1.0156e+04   2.21e-06
  1.0542e+04   1.74e-06
  1.0943e+04   1.37e-06
  1.1360e+04   1.07e-06
  1.1792e+04   8.15e-07
  1.2240e+04   6.18e-07
  1.2706e+04   4.61e-07
  1.3189e+04   3.36e-07
  1.3691e+04   2.42e-07
  1.4212e+04   1.71e-07
  1.4753e+04   1.17e-07
  1.5314e+04   7.88e-08
  1.5897e+04   5.16e-08
  1.6501e+04   3.25e-08
  1.7129e+04   1.98e-08
  1.7781e+04   1.17e-08
  1.8457e+04   6.52e-09
  1.9159e+04   3.46e-09
  1.9888e+04   1.74e-09
  2.0645e+04   8.14e-10
  2.1430e+04   3.51e-10
  2.2245e+04   1.40e-10
  2.3092e+04   4.98e-11
  2.3970e+04   1.57e-11
  2.4882e+04   4.35e-12
  2.5829e+04   1.01e-12
  2.6811e+04   1.94e-13
  2.7831e+04   3.01e-14
  2.8890e+04   3.53e-15
  2.9989e+04   2.98e-16
  3.1130e+04   1.75e-17
  3.2314e+04   6.37e-19
  3.3544e+04   1.30e-20
  3.4820e+04   1.37e-22
  3.6144e+04   6.14e-25
  3.7519e+04   9.54e-28
  3.8947e+04   4.13e-31
  4.0428e+04   3.49e-35
  4.1966e+04   3.74e-40
  4.3563e+04   2.98e-46
  4.5220e+04   1.06e-47
  4.6941e+04   9.82e-48
  4.8726e+04   9.16e-48
  5.0580e+04   8.57e-48
