#  E [GeV]   # per interaction  [GeV^{-1}]
  3.0000e+01   5.03e-01
  3.0872e+01   4.86e-01
  3.1770e+01   4.70e-01
  3.2694e+01   4.55e-01
  3.3644e+01   4.40e-01
  3.4623e+01   4.25e-01
  3.5629e+01   4.10e-01
  3.6665e+01   3.97e-01
  3.7731e+01   3.83e-01
  3.8829e+01   3.70e-01
  3.9958e+01   3.57e-01
  4.1119e+01   3.45e-01
  4.2315e+01   3.33e-01
  4.3545e+01   3.21e-01
  4.4812e+01   3.10e-01
  4.6115e+01   2.99e-01
  4.7456e+01   2.88e-01
  4.8835e+01   2.77e-01
  5.0255e+01   2.67e-01
  5.1717e+01   2.57e-01
  5.3220e+01   2.48e-01
  5.4768e+01   2.39e-01
  5.6360e+01   2.30e-01
  5.7999e+01   2.21e-01
  5.9686e+01   2.12e-01
  6.1421e+01   2.04e-01
  6.3207e+01   1.96e-01
  6.5045e+01   1.88e-01
  6.6936e+01   1.81e-01
  6.8882e+01   1.74e-01
  7.0885e+01   1.67e-01
  7.2947e+01   1.60e-01
  7.5068e+01   1.53e-01
  7.7250e+01   1.47e-01
  7.9496e+01   1.41e-01
  8.1808e+01   1.35e-01
  8.4187e+01   1.29e-01
  8.6635e+01   1.24e-01
  8.9154e+01   1.19e-01
  9.1746e+01   1.13e-01
  9.4414e+01   1.08e-01
  9.7159e+01   1.04e-01
  9.9984e+01   9.91e-02
  1.0289e+02   9.46e-02
  1.0588e+02   9.04e-02
  1.0896e+02   8.62e-02
  1.1213e+02   8.23e-02
  1.1539e+02   7.84e-02
  1.1875e+02   7.48e-02
  1.2220e+02   7.12e-02
  1.2575e+02   6.79e-02
  1.2941e+02   6.46e-02
  1.3317e+02   6.15e-02
  1.3704e+02   5.85e-02
  1.4103e+02   5.57e-02
  1.4513e+02   5.29e-02
  1.4935e+02   5.03e-02
  1.5369e+02   4.78e-02
  1.5816e+02   4.54e-02
  1.6276e+02   4.31e-02
  1.6749e+02   4.09e-02
  1.7236e+02   3.88e-02
  1.7737e+02   3.68e-02
  1.8253e+02   3.48e-02
  1.8784e+02   3.30e-02
  1.9330e+02   3.12e-02
  1.9892e+02   2.96e-02
  2.0470e+02   2.79e-02
  2.1066e+02   2.64e-02
  2.1678e+02   2.49e-02
  2.2309e+02   2.35e-02
  2.2957e+02   2.22e-02
  2.3625e+02   2.09e-02
  2.4312e+02   1.97e-02
  2.5019e+02   1.85e-02
  2.5746e+02   1.74e-02
  2.6495e+02   1.64e-02
  2.7265e+02   1.54e-02
  2.8058e+02   1.44e-02
  2.8874e+02   1.35e-02
  2.9713e+02   1.27e-02
  3.0577e+02   1.19e-02
  3.1466e+02   1.11e-02
  3.2381e+02   1.04e-02
  3.3323e+02   9.72e-03
  3.4292e+02   9.08e-03
  3.5289e+02   8.48e-03
  3.6315e+02   7.90e-03
  3.7371e+02   7.35e-03
  3.8457e+02   6.85e-03
  3.9576e+02   6.37e-03
  4.0726e+02   5.92e-03
  4.1911e+02   5.49e-03
  4.3129e+02   5.10e-03
  4.4383e+02   4.73e-03
  4.5674e+02   4.37e-03
  4.7002e+02   4.04e-03
  4.8368e+02   3.74e-03
  4.9775e+02   3.45e-03
  5.1222e+02   3.19e-03
  5.2712e+02   2.93e-03
  5.4244e+02   2.70e-03
  5.5821e+02   2.49e-03
  5.7445e+02   2.29e-03
  5.9115e+02   2.10e-03
  6.0834e+02   1.93e-03
  6.2603e+02   1.77e-03
  6.4423e+02   1.63e-03
  6.6296e+02   1.49e-03
  6.8224e+02   1.36e-03
  7.0208e+02   1.25e-03
  7.2249e+02   1.14e-03
  7.4350e+02   1.04e-03
  7.6512e+02   9.53e-04
  7.8736e+02   8.70e-04
  8.1026e+02   7.93e-04
  8.3382e+02   7.20e-04
  8.5806e+02   6.55e-04
  8.8301e+02   5.97e-04
  9.0869e+02   5.43e-04
  9.3511e+02   4.92e-04
  9.6230e+02   4.47e-04
  9.9028e+02   4.07e-04
  1.0191e+03   3.69e-04
  1.0487e+03   3.34e-04
  1.0792e+03   3.03e-04
  1.1106e+03   2.75e-04
  1.1429e+03   2.49e-04
  1.1761e+03   2.25e-04
  1.2103e+03   2.03e-04
  1.2455e+03   1.84e-04
  1.2817e+03   1.67e-04
  1.3190e+03   1.50e-04
  1.3573e+03   1.35e-04
  1.3968e+03   1.23e-04
  1.4374e+03   1.11e-04
  1.4792e+03   9.96e-05
  1.5222e+03   8.98e-05
  1.5665e+03   8.13e-05
  1.6120e+03   7.33e-05
  1.6589e+03   6.58e-05
  1.7071e+03   5.92e-05
  1.7568e+03   5.35e-05
  1.8079e+03   4.81e-05
  1.8604e+03   4.31e-05
  1.9145e+03   3.87e-05
  1.9702e+03   3.49e-05
  2.0275e+03   3.13e-05
  2.0864e+03   2.80e-05
  2.1471e+03   2.51e-05
  2.2095e+03   2.26e-05
  2.2738e+03   2.03e-05
  2.3399e+03   1.81e-05
  2.4079e+03   1.62e-05
  2.4779e+03   1.46e-05
  2.5500e+03   1.30e-05
  2.6241e+03   1.16e-05
  2.7004e+03   1.04e-05
  2.7790e+03   9.31e-06
  2.8598e+03   8.33e-06
  2.9429e+03   7.40e-06
  3.0285e+03   6.58e-06
  3.1165e+03   5.91e-06
  3.2072e+03   5.28e-06
  3.3004e+03   4.68e-06
  3.3964e+03   4.15e-06
  3.4951e+03   3.72e-06
  3.5968e+03   3.31e-06
  3.7013e+03   2.93e-06
  3.8090e+03   2.59e-06
  3.9197e+03   2.32e-06
  4.0337e+03   2.06e-06
  4.1510e+03   1.81e-06
  4.2717e+03   1.60e-06
  4.3959e+03   1.43e-06
  4.5237e+03   1.27e-06
  4.6552e+03   1.12e-06
  4.7906e+03   9.85e-07
  4.9299e+03   8.81e-07
  5.0732e+03   7.84e-07
  5.2208e+03   6.94e-07
  5.3726e+03   6.15e-07
  5.5288e+03   5.56e-07
  5.6895e+03   5.00e-07
  5.8550e+03   4.48e-07
  6.0252e+03   4.02e-07
  6.2004e+03   3.67e-07
  6.3807e+03   3.34e-07
  6.5662e+03   3.03e-07
  6.7572e+03   2.76e-07
  6.9536e+03   2.54e-07
  7.1558e+03   2.34e-07
  7.3639e+03   2.14e-07
  7.5780e+03   1.97e-07
  7.7984e+03   1.82e-07
  8.0251e+03   1.68e-07
  8.2585e+03   1.55e-07
  8.4986e+03   1.43e-07
  8.7457e+03   1.31e-07
  9.0000e+03   1.20e-07
