#  E [MeV]   Flux [# cm^{-2} s^{-1}  MeV^{-1}]
  3.0000e+04   4.18e-26
  3.1232e+04   4.00e-26
  3.2514e+04   3.82e-26
  3.3849e+04   3.65e-26
  3.5238e+04   3.49e-26
  3.6685e+04   3.33e-26
  3.8191e+04   3.19e-26
  3.9759e+04   3.04e-26
  4.1391e+04   2.91e-26
  4.3090e+04   2.78e-26
  4.4859e+04   2.65e-26
  4.6701e+04   2.53e-26
  4.8618e+04   2.42e-26
  5.0614e+04   2.31e-26
  5.2692e+04   2.20e-26
  5.4855e+04   2.10e-26
  5.7107e+04   2.01e-26
  5.9451e+04   1.92e-26
  6.1892e+04   1.83e-26
  6.4433e+04   1.75e-26
  6.7078e+04   1.67e-26
  6.9832e+04   1.59e-26
  7.2699e+04   1.51e-26
  7.5683e+04   1.44e-26
  7.8790e+04   1.38e-26
  8.2025e+04   1.31e-26
  8.5392e+04   1.25e-26
  8.8898e+04   1.19e-26
  9.2547e+04   1.14e-26
  9.6347e+04   1.08e-26
  1.0030e+05   1.03e-26
  1.0442e+05   9.83e-27
  1.0871e+05   9.36e-27
  1.1317e+05   8.91e-27
  1.1782e+05   8.48e-27
  1.2265e+05   8.07e-27
  1.2769e+05   7.67e-27
  1.3293e+05   7.30e-27
  1.3839e+05   6.94e-27
  1.4407e+05   6.59e-27
  1.4998e+05   6.26e-27
  1.5614e+05   5.95e-27
  1.6255e+05   5.64e-27
  1.6922e+05   5.36e-27
  1.7617e+05   5.08e-27
  1.8340e+05   4.82e-27
  1.9093e+05   4.56e-27
  1.9877e+05   4.32e-27
  2.0693e+05   4.09e-27
  2.1543e+05   3.87e-27
  2.2427e+05   3.66e-27
  2.3348e+05   3.46e-27
  2.4306e+05   3.27e-27
  2.5304e+05   3.09e-27
  2.6343e+05   2.91e-27
  2.7424e+05   2.75e-27
  2.8550e+05   2.59e-27
  2.9722e+05   2.43e-27
  3.0942e+05   2.29e-27
  3.2213e+05   2.15e-27
  3.3535e+05   2.02e-27
  3.4912e+05   1.89e-27
  3.6345e+05   1.77e-27
  3.7837e+05   1.66e-27
  3.9390e+05   1.55e-27
  4.1008e+05   1.45e-27
  4.2691e+05   1.35e-27
  4.4444e+05   1.26e-27
  4.6268e+05   1.18e-27
  4.8168e+05   1.10e-27
  5.0145e+05   1.02e-27
  5.2204e+05   9.47e-28
  5.4347e+05   8.79e-28
  5.6578e+05   8.15e-28
  5.8901e+05   7.56e-28
  6.1319e+05   7.00e-28
  6.3836e+05   6.48e-28
  6.6457e+05   5.99e-28
  6.9185e+05   5.54e-28
  7.2025e+05   5.11e-28
  7.4982e+05   4.72e-28
  7.8061e+05   4.36e-28
  8.1265e+05   4.02e-28
  8.4601e+05   3.70e-28
  8.8075e+05   3.42e-28
  9.1690e+05   3.15e-28
  9.5455e+05   2.90e-28
  9.9373e+05   2.67e-28
  1.0345e+06   2.46e-28
  1.0770e+06   2.27e-28
  1.1212e+06   2.09e-28
  1.1672e+06   1.92e-28
  1.2152e+06   1.77e-28
  1.2650e+06   1.63e-28
  1.3170e+06   1.50e-28
  1.3711e+06   1.38e-28
  1.4273e+06   1.27e-28
  1.4859e+06   1.17e-28
  1.5469e+06   1.08e-28
  1.6104e+06   9.93e-29
  1.6766e+06   9.14e-29
  1.7454e+06   8.42e-29
  1.8170e+06   7.75e-29
  1.8916e+06   7.13e-29
  1.9693e+06   6.57e-29
  2.0501e+06   6.04e-29
  2.1343e+06   5.55e-29
  2.2219e+06   5.11e-29
  2.3131e+06   4.69e-29
  2.4081e+06   4.30e-29
  2.5070e+06   3.95e-29
  2.6099e+06   3.62e-29
  2.7170e+06   3.31e-29
  2.8286e+06   3.03e-29
  2.9447e+06   2.77e-29
  3.0656e+06   2.53e-29
  3.1914e+06   2.31e-29
  3.3225e+06   2.11e-29
  3.4589e+06   1.92e-29
  3.6008e+06   1.74e-29
  3.7487e+06   1.58e-29
  3.9026e+06   1.43e-29
  4.0628e+06   1.30e-29
  4.2296e+06   1.17e-29
  4.4032e+06   1.05e-29
  4.5840e+06   9.47e-30
  4.7722e+06   8.48e-30
  4.9681e+06   7.59e-30
  5.1720e+06   6.77e-30
  5.3844e+06   6.02e-30
  5.6054e+06   5.35e-30
  5.8355e+06   4.73e-30
  6.0751e+06   4.16e-30
  6.3245e+06   3.66e-30
  6.5841e+06   3.20e-30
  6.8544e+06   2.79e-30
  7.1358e+06   2.42e-30
  7.4288e+06   2.09e-30
  7.7338e+06   1.79e-30
  8.0513e+06   1.53e-30
  8.3818e+06   1.30e-30
  8.7259e+06   1.10e-30
  9.0841e+06   9.17e-31
  9.4571e+06   7.60e-31
  9.8453e+06   6.27e-31
  1.0249e+07   5.12e-31
  1.0670e+07   4.12e-31
  1.1108e+07   3.30e-31
  1.1564e+07   2.60e-31
  1.2039e+07   2.02e-31
  1.2533e+07   1.55e-31
  1.3048e+07   1.17e-31
  1.3584e+07   8.63e-32
  1.4141e+07   6.26e-32
  1.4722e+07   4.42e-32
  1.5326e+07   3.04e-32
  1.5955e+07   2.04e-32
  1.6610e+07   1.31e-32
  1.7292e+07   8.14e-33
  1.8002e+07   4.84e-33
  1.8741e+07   2.72e-33
  1.9511e+07   1.45e-33
  2.0312e+07   7.25e-34
  2.1145e+07   3.32e-34
  2.2013e+07   1.40e-34
  2.2917e+07   5.29e-35
  2.3858e+07   1.75e-35
  2.4837e+07   5.06e-36
  2.5857e+07   1.22e-36
  2.6919e+07   2.37e-37
  2.8024e+07   3.60e-38
  2.9174e+07   4.02e-39
  3.0372e+07   3.10e-40
  3.1619e+07   1.53e-41
  3.2917e+07   4.33e-43
  3.4268e+07   6.17e-45
  3.5675e+07   3.77e-47
  3.7140e+07   7.84e-50
  3.8664e+07   4.23e-53
  4.0252e+07   4.07e-57
  4.1904e+07   4.26e-62
  4.3624e+07   2.54e-68
  4.5415e+07   1.04e-71
  4.7280e+07   9.91e-72
  4.9221e+07   9.60e-72
  5.1241e+07   9.31e-72
  5.3345e+07   9.04e-72
  5.5535e+07   9.05e-72
  5.7815e+07   9.05e-72
  6.0188e+07   9.10e-72
  6.2659e+07   9.47e-72
  6.5232e+07   9.80e-72
  6.7910e+07   1.04e-71
  7.0698e+07   1.18e-71
  7.3600e+07   1.30e-71
  7.6621e+07   1.62e-71
  7.9767e+07   2.19e-71
  8.3042e+07   2.71e-71
  8.6451e+07   3.66e-71
  9.0000e+07   4.87e-71
