#  E [GeV]   # per interaction  [GeV^{-1}]
  3.0000e+01   4.91e-01
  3.1051e+01   4.72e-01
  3.2139e+01   4.55e-01
  3.3266e+01   4.37e-01
  3.4432e+01   4.21e-01
  3.5638e+01   4.05e-01
  3.6887e+01   3.90e-01
  3.8180e+01   3.75e-01
  3.9518e+01   3.61e-01
  4.0903e+01   3.47e-01
  4.2336e+01   3.34e-01
  4.3820e+01   3.21e-01
  4.5355e+01   3.08e-01
  4.6945e+01   2.97e-01
  4.8590e+01   2.85e-01
  5.0293e+01   2.74e-01
  5.2055e+01   2.63e-01
  5.3879e+01   2.53e-01
  5.5767e+01   2.43e-01
  5.7722e+01   2.33e-01
  5.9745e+01   2.24e-01
  6.1838e+01   2.15e-01
  6.4005e+01   2.07e-01
  6.6248e+01   1.98e-01
  6.8570e+01   1.90e-01
  7.0973e+01   1.83e-01
  7.3460e+01   1.75e-01
  7.6034e+01   1.68e-01
  7.8699e+01   1.61e-01
  8.1457e+01   1.54e-01
  8.4311e+01   1.48e-01
  8.7266e+01   1.42e-01
  9.0324e+01   1.36e-01
  9.3490e+01   1.30e-01
  9.6766e+01   1.25e-01
  1.0016e+02   1.19e-01
  1.0367e+02   1.14e-01
  1.0730e+02   1.09e-01
  1.1106e+02   1.04e-01
  1.1495e+02   9.99e-02
  1.1898e+02   9.55e-02
  1.2315e+02   9.13e-02
  1.2747e+02   8.72e-02
  1.3193e+02   8.33e-02
  1.3656e+02   7.96e-02
  1.4134e+02   7.59e-02
  1.4629e+02   7.25e-02
  1.5142e+02   6.91e-02
  1.5673e+02   6.59e-02
  1.6222e+02   6.28e-02
  1.6790e+02   5.99e-02
  1.7379e+02   5.70e-02
  1.7988e+02   5.43e-02
  1.8618e+02   5.17e-02
  1.9271e+02   4.92e-02
  1.9946e+02   4.68e-02
  2.0645e+02   4.44e-02
  2.1369e+02   4.22e-02
  2.2117e+02   4.01e-02
  2.2892e+02   3.81e-02
  2.3695e+02   3.61e-02
  2.4525e+02   3.42e-02
  2.5385e+02   3.24e-02
  2.6274e+02   3.07e-02
  2.7195e+02   2.91e-02
  2.8148e+02   2.75e-02
  2.9134e+02   2.61e-02
  3.0155e+02   2.46e-02
  3.1212e+02   2.33e-02
  3.2306e+02   2.20e-02
  3.3438e+02   2.07e-02
  3.4610e+02   1.96e-02
  3.5823e+02   1.84e-02
  3.7078e+02   1.74e-02
  3.8377e+02   1.64e-02
  3.9722e+02   1.54e-02
  4.1114e+02   1.45e-02
  4.2555e+02   1.36e-02
  4.4046e+02   1.28e-02
  4.5590e+02   1.20e-02
  4.7188e+02   1.13e-02
  4.8841e+02   1.06e-02
  5.0553e+02   9.90e-03
  5.2324e+02   9.27e-03
  5.4158e+02   8.68e-03
  5.6056e+02   8.12e-03
  5.8020e+02   7.59e-03
  6.0054e+02   7.10e-03
  6.2158e+02   6.63e-03
  6.4337e+02   6.19e-03
  6.6591e+02   5.78e-03
  6.8925e+02   5.39e-03
  7.1340e+02   5.02e-03
  7.3840e+02   4.68e-03
  7.6428e+02   4.36e-03
  7.9106e+02   4.05e-03
  8.1878e+02   3.77e-03
  8.4748e+02   3.51e-03
  8.7718e+02   3.26e-03
  9.0792e+02   3.03e-03
  9.3973e+02   2.81e-03
  9.7267e+02   2.61e-03
  1.0068e+03   2.43e-03
  1.0420e+03   2.25e-03
  1.0785e+03   2.09e-03
  1.1163e+03   1.93e-03
  1.1555e+03   1.79e-03
  1.1960e+03   1.66e-03
  1.2379e+03   1.54e-03
  1.2813e+03   1.43e-03
  1.3262e+03   1.32e-03
  1.3726e+03   1.22e-03
  1.4207e+03   1.13e-03
  1.4705e+03   1.04e-03
  1.5220e+03   9.64e-04
  1.5754e+03   8.91e-04
  1.6306e+03   8.24e-04
  1.6877e+03   7.60e-04
  1.7469e+03   7.01e-04
  1.8081e+03   6.47e-04
  1.8715e+03   5.97e-04
  1.9370e+03   5.49e-04
  2.0049e+03   5.06e-04
  2.0752e+03   4.66e-04
  2.1479e+03   4.29e-04
  2.2232e+03   3.94e-04
  2.3011e+03   3.63e-04
  2.3817e+03   3.33e-04
  2.4652e+03   3.06e-04
  2.5516e+03   2.81e-04
  2.6410e+03   2.58e-04
  2.7336e+03   2.36e-04
  2.8294e+03   2.16e-04
  2.9285e+03   1.98e-04
  3.0311e+03   1.80e-04
  3.1374e+03   1.65e-04
  3.2473e+03   1.51e-04
  3.3611e+03   1.37e-04
  3.4789e+03   1.25e-04
  3.6008e+03   1.14e-04
  3.7270e+03   1.03e-04
  3.8576e+03   9.37e-05
  3.9928e+03   8.52e-05
  4.1327e+03   7.73e-05
  4.2775e+03   6.98e-05
  4.4274e+03   6.32e-05
  4.5826e+03   5.72e-05
  4.7432e+03   5.16e-05
  4.9094e+03   4.64e-05
  5.0815e+03   4.19e-05
  5.2595e+03   3.77e-05
  5.4438e+03   3.37e-05
  5.6346e+03   3.03e-05
  5.8321e+03   2.72e-05
  6.0365e+03   2.42e-05
  6.2480e+03   2.17e-05
  6.4670e+03   1.94e-05
  6.6936e+03   1.72e-05
  6.9282e+03   1.53e-05
  7.1709e+03   1.36e-05
  7.4222e+03   1.21e-05
  7.6823e+03   1.07e-05
  7.9516e+03   9.49e-06
  8.2302e+03   8.40e-06
  8.5186e+03   7.40e-06
  8.8172e+03   6.52e-06
  9.1262e+03   5.76e-06
  9.4460e+03   5.06e-06
  9.7770e+03   4.43e-06
  1.0120e+04   3.90e-06
  1.0474e+04   3.42e-06
  1.0841e+04   2.97e-06
  1.1221e+04   2.61e-06
  1.1614e+04   2.28e-06
  1.2022e+04   1.99e-06
  1.2443e+04   1.73e-06
  1.2879e+04   1.51e-06
  1.3330e+04   1.31e-06
  1.3797e+04   1.12e-06
  1.4281e+04   9.75e-07
  1.4781e+04   8.38e-07
  1.5299e+04   7.13e-07
  1.5835e+04   6.09e-07
  1.6390e+04   5.16e-07
  1.6965e+04   4.31e-07
  1.7559e+04   3.60e-07
  1.8175e+04   3.00e-07
  1.8812e+04   2.45e-07
  1.9471e+04   1.97e-07
  2.0153e+04   1.59e-07
  2.0859e+04   1.25e-07
  2.1590e+04   9.45e-08
  2.2347e+04   7.36e-08
  2.3130e+04   5.52e-08
  2.3941e+04   3.90e-08
  2.4780e+04   2.86e-08
  2.5648e+04   2.10e-08
  2.6547e+04   1.35e-08
  2.7477e+04   7.75e-09
  2.8440e+04   4.04e-09
