#  E [MeV]   Flux [# cm^{-2} s^{-1}  MeV^{-1}]
  3.0000e+04   5.74e-26
  3.1232e+04   5.49e-26
  3.2514e+04   5.25e-26
  3.3849e+04   5.03e-26
  3.5238e+04   4.81e-26
  3.6685e+04   4.60e-26
  3.8191e+04   4.40e-26
  3.9759e+04   4.21e-26
  4.1391e+04   4.02e-26
  4.3090e+04   3.85e-26
  4.4859e+04   3.68e-26
  4.6701e+04   3.52e-26
  4.8618e+04   3.36e-26
  5.0614e+04   3.21e-26
  5.2692e+04   3.07e-26
  5.4855e+04   2.94e-26
  5.7107e+04   2.81e-26
  5.9451e+04   2.68e-26
  6.1892e+04   2.56e-26
  6.4433e+04   2.45e-26
  6.7078e+04   2.34e-26
  6.9832e+04   2.23e-26
  7.2699e+04   2.13e-26
  7.5683e+04   2.04e-26
  7.8790e+04   1.95e-26
  8.2025e+04   1.86e-26
  8.5392e+04   1.77e-26
  8.8898e+04   1.69e-26
  9.2547e+04   1.62e-26
  9.6347e+04   1.54e-26
  1.0030e+05   1.47e-26
  1.0442e+05   1.40e-26
  1.0871e+05   1.34e-26
  1.1317e+05   1.28e-26
  1.1782e+05   1.22e-26
  1.2265e+05   1.16e-26
  1.2769e+05   1.11e-26
  1.3293e+05   1.05e-26
  1.3839e+05   1.00e-26
  1.4407e+05   9.56e-27
  1.4998e+05   9.10e-27
  1.5614e+05   8.66e-27
  1.6255e+05   8.24e-27
  1.6922e+05   7.83e-27
  1.7617e+05   7.44e-27
  1.8340e+05   7.07e-27
  1.9093e+05   6.72e-27
  1.9877e+05   6.38e-27
  2.0693e+05   6.05e-27
  2.1543e+05   5.74e-27
  2.2427e+05   5.44e-27
  2.3348e+05   5.15e-27
  2.4306e+05   4.88e-27
  2.5304e+05   4.61e-27
  2.6343e+05   4.36e-27
  2.7424e+05   4.12e-27
  2.8550e+05   3.89e-27
  2.9722e+05   3.67e-27
  3.0942e+05   3.46e-27
  3.2213e+05   3.26e-27
  3.3535e+05   3.06e-27
  3.4912e+05   2.88e-27
  3.6345e+05   2.71e-27
  3.7837e+05   2.54e-27
  3.9390e+05   2.38e-27
  4.1008e+05   2.23e-27
  4.2691e+05   2.09e-27
  4.4444e+05   1.95e-27
  4.6268e+05   1.83e-27
  4.8168e+05   1.70e-27
  5.0145e+05   1.59e-27
  5.2204e+05   1.48e-27
  5.4347e+05   1.38e-27
  5.6578e+05   1.28e-27
  5.8901e+05   1.19e-27
  6.1319e+05   1.11e-27
  6.3836e+05   1.03e-27
  6.6457e+05   9.52e-28
  6.9185e+05   8.82e-28
  7.2025e+05   8.17e-28
  7.4982e+05   7.56e-28
  7.8061e+05   6.99e-28
  8.1265e+05   6.46e-28
  8.4601e+05   5.97e-28
  8.8075e+05   5.52e-28
  9.1690e+05   5.09e-28
  9.5455e+05   4.70e-28
  9.9373e+05   4.34e-28
  1.0345e+06   4.00e-28
  1.0770e+06   3.69e-28
  1.1212e+06   3.40e-28
  1.1672e+06   3.14e-28
  1.2152e+06   2.89e-28
  1.2650e+06   2.66e-28
  1.3170e+06   2.45e-28
  1.3711e+06   2.26e-28
  1.4273e+06   2.08e-28
  1.4859e+06   1.92e-28
  1.5469e+06   1.77e-28
  1.6104e+06   1.63e-28
  1.6766e+06   1.50e-28
  1.7454e+06   1.38e-28
  1.8170e+06   1.27e-28
  1.8916e+06   1.17e-28
  1.9693e+06   1.08e-28
  2.0501e+06   9.89e-29
  2.1343e+06   9.08e-29
  2.2219e+06   8.34e-29
  2.3131e+06   7.65e-29
  2.4081e+06   7.01e-29
  2.5070e+06   6.43e-29
  2.6099e+06   5.88e-29
  2.7170e+06   5.38e-29
  2.8286e+06   4.92e-29
  2.9447e+06   4.49e-29
  3.0656e+06   4.09e-29
  3.1914e+06   3.73e-29
  3.3225e+06   3.39e-29
  3.4589e+06   3.08e-29
  3.6008e+06   2.79e-29
  3.7487e+06   2.53e-29
  3.9026e+06   2.29e-29
  4.0628e+06   2.06e-29
  4.2296e+06   1.86e-29
  4.4032e+06   1.67e-29
  4.5840e+06   1.50e-29
  4.7722e+06   1.34e-29
  4.9681e+06   1.19e-29
  5.1720e+06   1.06e-29
  5.3844e+06   9.42e-30
  5.6054e+06   8.36e-30
  5.8355e+06   7.37e-30
  6.0751e+06   6.47e-30
  6.3245e+06   5.69e-30
  6.5841e+06   4.96e-30
  6.8544e+06   4.31e-30
  7.1358e+06   3.74e-30
  7.4288e+06   3.22e-30
  7.7338e+06   2.76e-30
  8.0513e+06   2.36e-30
  8.3818e+06   2.00e-30
  8.7259e+06   1.69e-30
  9.0841e+06   1.42e-30
  9.4571e+06   1.17e-30
  9.8453e+06   9.71e-31
  1.0249e+07   7.94e-31
  1.0670e+07   6.41e-31
  1.1108e+07   5.16e-31
  1.1564e+07   4.09e-31
  1.2039e+07   3.19e-31
  1.2533e+07   2.47e-31
  1.3048e+07   1.88e-31
  1.3584e+07   1.40e-31
  1.4141e+07   1.03e-31
  1.4722e+07   7.38e-32
  1.5326e+07   5.16e-32
  1.5955e+07   3.53e-32
  1.6610e+07   2.33e-32
  1.7292e+07   1.48e-32
  1.8002e+07   9.11e-33
  1.8741e+07   5.31e-33
  1.9511e+07   2.95e-33
  2.0312e+07   1.54e-33
  2.1145e+07   7.47e-34
  2.2013e+07   3.36e-34
  2.2917e+07   1.37e-34
  2.3858e+07   4.95e-35
  2.4837e+07   1.59e-35
  2.5857e+07   4.33e-36
  2.6919e+07   9.66e-37
  2.8024e+07   1.75e-37
  2.9174e+07   2.40e-38
  3.0372e+07   2.35e-39
  3.1619e+07   1.56e-40
  3.2917e+07   6.25e-42
  3.4268e+07   1.35e-43
  3.5675e+07   1.38e-45
  3.7140e+07   5.31e-48
  3.8664e+07   6.11e-51
  4.0252e+07   1.51e-54
  4.1904e+07   5.01e-59
  4.3624e+07   1.27e-64
  4.5415e+07   1.10e-71
  4.7280e+07   2.45e-72
  4.9221e+07   2.10e-72
  5.1241e+07   1.80e-72
  5.3345e+07   1.53e-72
  5.5535e+07   1.32e-72
  5.7815e+07   1.14e-72
  6.0188e+07   9.75e-73
  6.2659e+07   8.56e-73
  6.5232e+07   7.45e-73
  6.7910e+07   6.46e-73
  7.0698e+07   5.76e-73
  7.3600e+07   5.10e-73
  7.6621e+07   4.53e-73
  7.9767e+07   4.08e-73
  8.3042e+07   3.67e-73
  8.6451e+07   3.32e-73
  9.0000e+07   3.03e-73
