#  E [GeV]   # per interaction  [GeV^{-1}]
  3.0000e+01   1.10e+00
  3.1141e+01   1.06e+00
  3.2326e+01   1.01e+00
  3.3556e+01   9.63e-01
  3.4832e+01   9.19e-01
  3.6157e+01   8.78e-01
  3.7533e+01   8.38e-01
  3.8961e+01   8.00e-01
  4.0443e+01   7.63e-01
  4.1982e+01   7.28e-01
  4.3579e+01   6.95e-01
  4.5237e+01   6.62e-01
  4.6958e+01   6.32e-01
  4.8744e+01   6.02e-01
  5.0598e+01   5.74e-01
  5.2523e+01   5.47e-01
  5.4521e+01   5.22e-01
  5.6596e+01   4.97e-01
  5.8749e+01   4.74e-01
  6.0984e+01   4.51e-01
  6.3304e+01   4.30e-01
  6.5712e+01   4.09e-01
  6.8212e+01   3.90e-01
  7.0807e+01   3.71e-01
  7.3500e+01   3.53e-01
  7.6297e+01   3.36e-01
  7.9199e+01   3.20e-01
  8.2212e+01   3.04e-01
  8.5340e+01   2.89e-01
  8.8586e+01   2.75e-01
  9.1956e+01   2.62e-01
  9.5455e+01   2.49e-01
  9.9086e+01   2.36e-01
  1.0286e+02   2.25e-01
  1.0677e+02   2.13e-01
  1.1083e+02   2.03e-01
  1.1505e+02   1.93e-01
  1.1942e+02   1.83e-01
  1.2397e+02   1.74e-01
  1.2868e+02   1.65e-01
  1.3358e+02   1.56e-01
  1.3866e+02   1.48e-01
  1.4394e+02   1.41e-01
  1.4941e+02   1.33e-01
  1.5509e+02   1.26e-01
  1.6100e+02   1.20e-01
  1.6712e+02   1.14e-01
  1.7348e+02   1.08e-01
  1.8008e+02   1.02e-01
  1.8693e+02   9.64e-02
  1.9404e+02   9.12e-02
  2.0142e+02   8.63e-02
  2.0908e+02   8.16e-02
  2.1704e+02   7.71e-02
  2.2529e+02   7.29e-02
  2.3387e+02   6.88e-02
  2.4276e+02   6.50e-02
  2.5200e+02   6.13e-02
  2.6158e+02   5.78e-02
  2.7154e+02   5.45e-02
  2.8187e+02   5.13e-02
  2.9259e+02   4.83e-02
  3.0372e+02   4.55e-02
  3.1527e+02   4.28e-02
  3.2727e+02   4.02e-02
  3.3972e+02   3.78e-02
  3.5264e+02   3.55e-02
  3.6606e+02   3.33e-02
  3.7998e+02   3.12e-02
  3.9444e+02   2.92e-02
  4.0945e+02   2.73e-02
  4.2502e+02   2.55e-02
  4.4119e+02   2.39e-02
  4.5798e+02   2.23e-02
  4.7540e+02   2.08e-02
  4.9348e+02   1.94e-02
  5.1226e+02   1.80e-02
  5.3175e+02   1.68e-02
  5.5198e+02   1.56e-02
  5.7297e+02   1.45e-02
  5.9477e+02   1.35e-02
  6.1740e+02   1.25e-02
  6.4089e+02   1.16e-02
  6.6527e+02   1.07e-02
  6.9058e+02   9.90e-03
  7.1685e+02   9.16e-03
  7.4412e+02   8.46e-03
  7.7243e+02   7.82e-03
  8.0181e+02   7.23e-03
  8.3232e+02   6.68e-03
  8.6398e+02   6.16e-03
  8.9685e+02   5.69e-03
  9.3097e+02   5.26e-03
  9.6638e+02   4.85e-03
  1.0031e+03   4.48e-03
  1.0413e+03   4.13e-03
  1.0809e+03   3.81e-03
  1.1220e+03   3.52e-03
  1.1647e+03   3.24e-03
  1.2090e+03   2.99e-03
  1.2550e+03   2.75e-03
  1.3028e+03   2.54e-03
  1.3523e+03   2.33e-03
  1.4038e+03   2.15e-03
  1.4572e+03   1.98e-03
  1.5126e+03   1.82e-03
  1.5702e+03   1.67e-03
  1.6299e+03   1.54e-03
  1.6919e+03   1.41e-03
  1.7563e+03   1.30e-03
  1.8231e+03   1.19e-03
  1.8925e+03   1.09e-03
  1.9645e+03   1.00e-03
  2.0392e+03   9.18e-04
  2.1168e+03   8.40e-04
  2.1973e+03   7.68e-04
  2.2809e+03   7.03e-04
  2.3677e+03   6.41e-04
  2.4577e+03   5.85e-04
  2.5512e+03   5.33e-04
  2.6483e+03   4.85e-04
  2.7490e+03   4.41e-04
  2.8536e+03   4.00e-04
  2.9622e+03   3.63e-04
  3.0749e+03   3.28e-04
  3.1918e+03   2.97e-04
  3.3133e+03   2.68e-04
  3.4393e+03   2.41e-04
  3.5702e+03   2.17e-04
  3.7060e+03   1.95e-04
  3.8470e+03   1.74e-04
  3.9933e+03   1.56e-04
  4.1452e+03   1.39e-04
  4.3029e+03   1.23e-04
  4.4666e+03   1.10e-04
  4.6366e+03   9.74e-05
  4.8129e+03   8.58e-05
  4.9960e+03   7.58e-05
  5.1861e+03   6.65e-05
  5.3834e+03   5.80e-05
  5.5882e+03   5.08e-05
  5.8008e+03   4.42e-05
  6.0215e+03   3.81e-05
  6.2506e+03   3.31e-05
  6.4883e+03   2.85e-05
  6.7352e+03   2.43e-05
  6.9914e+03   2.08e-05
  7.2574e+03   1.77e-05
  7.5335e+03   1.49e-05
  7.8201e+03   1.26e-05
  8.1176e+03   1.06e-05
  8.4264e+03   8.77e-06
  8.7470e+03   7.29e-06
  9.0797e+03   6.02e-06
  9.4251e+03   4.90e-06
  9.7837e+03   3.99e-06
  1.0156e+04   3.23e-06
  1.0542e+04   2.57e-06
  1.0943e+04   2.03e-06
  1.1360e+04   1.61e-06
  1.1792e+04   1.24e-06
  1.2240e+04   9.54e-07
  1.2706e+04   7.30e-07
  1.3189e+04   5.45e-07
  1.3691e+04   4.01e-07
  1.4212e+04   2.94e-07
  1.4753e+04   2.10e-07
  1.5314e+04   1.46e-07
  1.5897e+04   1.01e-07
  1.6501e+04   6.78e-08
  1.7129e+04   4.38e-08
  1.7781e+04   2.81e-08
  1.8457e+04   1.72e-08
  1.9159e+04   1.00e-08
  1.9888e+04   5.74e-09
  2.0645e+04   3.08e-09
  2.1430e+04   1.54e-09
  2.2245e+04   7.44e-10
  2.3092e+04   3.29e-10
  2.3970e+04   1.31e-10
  2.4882e+04   4.82e-11
  2.5829e+04   1.56e-11
  2.6811e+04   4.31e-12
  2.7831e+04   1.02e-12
  2.8890e+04   1.97e-13
  2.9989e+04   2.92e-14
  3.1130e+04   3.28e-15
  3.2314e+04   2.56e-16
  3.3544e+04   1.28e-17
  3.4820e+04   3.75e-19
  3.6144e+04   5.67e-21
  3.7519e+04   3.72e-23
  3.8947e+04   8.72e-26
  4.0428e+04   5.58e-29
  4.1966e+04   6.86e-33
  4.3563e+04   1.03e-37
  4.5220e+04   1.03e-43
  4.6941e+04   5.71e-48
  4.8726e+04   5.02e-48
  5.0580e+04   4.45e-48
