#  E [MeV]   Flux [# cm^{-2} s^{-1}  MeV^{-1}]
  3.0000e+04   1.08e-19
  3.0589e+04   1.04e-19
  3.1190e+04   1.00e-19
  3.1803e+04   9.66e-20
  3.2428e+04   9.31e-20
  3.3065e+04   8.97e-20
  3.3714e+04   8.65e-20
  3.4376e+04   8.33e-20
  3.5052e+04   8.02e-20
  3.5740e+04   7.72e-20
  3.6442e+04   7.43e-20
  3.7158e+04   7.15e-20
  3.7888e+04   6.89e-20
  3.8632e+04   6.63e-20
  3.9391e+04   6.37e-20
  4.0165e+04   6.13e-20
  4.0954e+04   5.89e-20
  4.1758e+04   5.66e-20
  4.2579e+04   5.44e-20
  4.3415e+04   5.23e-20
  4.4268e+04   5.03e-20
  4.5138e+04   4.83e-20
  4.6024e+04   4.63e-20
  4.6928e+04   4.45e-20
  4.7850e+04   4.27e-20
  4.8790e+04   4.10e-20
  4.9749e+04   3.93e-20
  5.0726e+04   3.77e-20
  5.1722e+04   3.61e-20
  5.2738e+04   3.46e-20
  5.3774e+04   3.32e-20
  5.4831e+04   3.18e-20
  5.5908e+04   3.05e-20
  5.7006e+04   2.92e-20
  5.8126e+04   2.79e-20
  5.9268e+04   2.67e-20
  6.0432e+04   2.56e-20
  6.1619e+04   2.45e-20
  6.2829e+04   2.34e-20
  6.4064e+04   2.24e-20
  6.5322e+04   2.14e-20
  6.6605e+04   2.04e-20
  6.7913e+04   1.95e-20
  6.9248e+04   1.86e-20
  7.0608e+04   1.78e-20
  7.1995e+04   1.69e-20
  7.3409e+04   1.61e-20
  7.4851e+04   1.54e-20
  7.6321e+04   1.47e-20
  7.7821e+04   1.40e-20
  7.9349e+04   1.33e-20
  8.0908e+04   1.27e-20
  8.2497e+04   1.21e-20
  8.4118e+04   1.15e-20
  8.5770e+04   1.09e-20
  8.7455e+04   1.04e-20
  8.9173e+04   9.90e-21
  9.0925e+04   9.40e-21
  9.2711e+04   8.92e-21
  9.4532e+04   8.48e-21
  9.6389e+04   8.06e-21
  9.8283e+04   7.65e-21
  1.0021e+05   7.26e-21
  1.0218e+05   6.87e-21
  1.0419e+05   6.51e-21
  1.0624e+05   6.18e-21
  1.0832e+05   5.86e-21
  1.1045e+05   5.55e-21
  1.1262e+05   5.25e-21
  1.1483e+05   4.96e-21
  1.1709e+05   4.69e-21
  1.1939e+05   4.44e-21
  1.2173e+05   4.20e-21
  1.2412e+05   3.97e-21
  1.2656e+05   3.75e-21
  1.2905e+05   3.53e-21
  1.3158e+05   3.33e-21
  1.3417e+05   3.15e-21
  1.3680e+05   2.97e-21
  1.3949e+05   2.80e-21
  1.4223e+05   2.63e-21
  1.4503e+05   2.48e-21
  1.4787e+05   2.33e-21
  1.5078e+05   2.19e-21
  1.5374e+05   2.07e-21
  1.5676e+05   1.94e-21
  1.5984e+05   1.82e-21
  1.6298e+05   1.71e-21
  1.6618e+05   1.60e-21
  1.6945e+05   1.50e-21
  1.7278e+05   1.41e-21
  1.7617e+05   1.32e-21
  1.7963e+05   1.24e-21
  1.8316e+05   1.16e-21
  1.8676e+05   1.08e-21
  1.9042e+05   1.02e-21
  1.9417e+05   9.51e-22
  1.9798e+05   8.89e-22
  2.0187e+05   8.29e-22
  2.0583e+05   7.71e-22
  2.0988e+05   7.19e-22
  2.1400e+05   6.73e-22
  2.1820e+05   6.28e-22
  2.2249e+05   5.85e-22
  2.2686e+05   5.44e-22
  2.3132e+05   5.04e-22
  2.3586e+05   4.69e-22
  2.4049e+05   4.38e-22
  2.4522e+05   4.07e-22
  2.5004e+05   3.78e-22
  2.5495e+05   3.50e-22
  2.5996e+05   3.23e-22
  2.6506e+05   3.00e-22
  2.7027e+05   2.79e-22
  2.7558e+05   2.59e-22
  2.8099e+05   2.39e-22
  2.8651e+05   2.20e-22
  2.9214e+05   2.02e-22
  2.9788e+05   1.87e-22
  3.0373e+05   1.74e-22
  3.0970e+05   1.60e-22
  3.1578e+05   1.48e-22
  3.2198e+05   1.36e-22
  3.2831e+05   1.24e-22
  3.3476e+05   1.15e-22
  3.4133e+05   1.06e-22
  3.4804e+05   9.75e-23
  3.5487e+05   8.94e-23
  3.6185e+05   8.18e-23
  3.6895e+05   7.44e-23
  3.7620e+05   6.87e-23
  3.8359e+05   6.32e-23
  3.9113e+05   5.80e-23
  3.9881e+05   5.31e-23
  4.0664e+05   4.83e-23
  4.1463e+05   4.38e-23
  4.2278e+05   4.04e-23
  4.3108e+05   3.71e-23
  4.3955e+05   3.39e-23
  4.4818e+05   3.09e-23
  4.5699e+05   2.81e-23
  4.6596e+05   2.54e-23
  4.7512e+05   2.34e-23
  4.8445e+05   2.14e-23
  4.9397e+05   1.95e-23
  5.0367e+05   1.78e-23
  5.1356e+05   1.61e-23
  5.2365e+05   1.46e-23
  5.3394e+05   1.34e-23
  5.4443e+05   1.23e-23
  5.5512e+05   1.12e-23
  5.6603e+05   1.02e-23
  5.7715e+05   9.20e-24
  5.8848e+05   8.34e-24
  6.0004e+05   7.67e-24
  6.1183e+05   7.03e-24
  6.2385e+05   6.43e-24
  6.3610e+05   5.86e-24
  6.4860e+05   5.32e-24
  6.6134e+05   4.84e-24
  6.7433e+05   4.46e-24
  6.8758e+05   4.10e-24
  7.0108e+05   3.76e-24
  7.1486e+05   3.44e-24
  7.2890e+05   3.13e-24
  7.4322e+05   2.86e-24
  7.5782e+05   2.65e-24
  7.7270e+05   2.44e-24
  7.8788e+05   2.24e-24
  8.0336e+05   2.05e-24
  8.1914e+05   1.88e-24
  8.3523e+05   1.73e-24
  8.5164e+05   1.61e-24
  8.6837e+05   1.49e-24
  8.8542e+05   1.38e-24
  9.0282e+05   1.27e-24
  9.2055e+05   1.17e-24
  9.3863e+05   1.08e-24
  9.5707e+05   1.01e-24
  9.7587e+05   9.36e-25
  9.9504e+05   8.69e-25
  1.0146e+06   8.04e-25
  1.0345e+06   7.43e-25
  1.0548e+06   6.90e-25
  1.0756e+06   6.41e-25
  1.0967e+06   5.94e-25
  1.1182e+06   5.50e-25
  1.1402e+06   5.08e-25
  1.1626e+06   4.69e-25
  1.1854e+06   4.32e-25
  1.2087e+06   3.98e-25
  1.2325e+06   3.65e-25
  1.2567e+06   3.35e-25
  1.2814e+06   3.05e-25
  1.3065e+06   2.78e-25
  1.3322e+06   2.58e-25
  1.3584e+06   2.40e-25
  1.3851e+06   2.23e-25
  1.4123e+06   2.08e-25
  1.4400e+06   1.92e-25
