#  E [GeV]   # per interaction  [GeV^{-1}]
  3.0000e+01   2.96e-02
  3.1232e+01   2.84e-02
  3.2514e+01   2.73e-02
  3.3849e+01   2.62e-02
  3.5238e+01   2.52e-02
  3.6685e+01   2.42e-02
  3.8191e+01   2.32e-02
  3.9759e+01   2.23e-02
  4.1391e+01   2.14e-02
  4.3090e+01   2.05e-02
  4.4859e+01   1.97e-02
  4.6701e+01   1.89e-02
  4.8618e+01   1.81e-02
  5.0614e+01   1.74e-02
  5.2692e+01   1.66e-02
  5.4855e+01   1.59e-02
  5.7107e+01   1.53e-02
  5.9451e+01   1.46e-02
  6.1892e+01   1.40e-02
  6.4433e+01   1.34e-02
  6.7078e+01   1.28e-02
  6.9832e+01   1.23e-02
  7.2699e+01   1.17e-02
  7.5683e+01   1.12e-02
  7.8790e+01   1.07e-02
  8.2025e+01   1.02e-02
  8.5392e+01   9.78e-03
  8.8898e+01   9.34e-03
  9.2547e+01   8.92e-03
  9.6347e+01   8.51e-03
  1.0030e+02   8.11e-03
  1.0442e+02   7.74e-03
  1.0871e+02   7.37e-03
  1.1317e+02   7.03e-03
  1.1782e+02   6.69e-03
  1.2265e+02   6.37e-03
  1.2769e+02   6.06e-03
  1.3293e+02   5.77e-03
  1.3839e+02   5.49e-03
  1.4407e+02   5.21e-03
  1.4998e+02   4.95e-03
  1.5614e+02   4.70e-03
  1.6255e+02   4.46e-03
  1.6922e+02   4.23e-03
  1.7617e+02   4.01e-03
  1.8340e+02   3.80e-03
  1.9093e+02   3.59e-03
  1.9877e+02   3.40e-03
  2.0693e+02   3.22e-03
  2.1543e+02   3.04e-03
  2.2427e+02   2.87e-03
  2.3348e+02   2.71e-03
  2.4306e+02   2.55e-03
  2.5304e+02   2.40e-03
  2.6343e+02   2.26e-03
  2.7424e+02   2.13e-03
  2.8550e+02   2.00e-03
  2.9722e+02   1.88e-03
  3.0942e+02   1.76e-03
  3.2213e+02   1.65e-03
  3.3535e+02   1.55e-03
  3.4912e+02   1.45e-03
  3.6345e+02   1.35e-03
  3.7837e+02   1.26e-03
  3.9390e+02   1.18e-03
  4.1008e+02   1.10e-03
  4.2691e+02   1.02e-03
  4.4444e+02   9.50e-04
  4.6268e+02   8.83e-04
  4.8168e+02   8.20e-04
  5.0145e+02   7.60e-04
  5.2204e+02   7.05e-04
  5.4347e+02   6.53e-04
  5.6578e+02   6.04e-04
  5.8901e+02   5.58e-04
  6.1319e+02   5.16e-04
  6.3836e+02   4.77e-04
  6.6457e+02   4.40e-04
  6.9185e+02   4.06e-04
  7.2025e+02   3.74e-04
  7.4982e+02   3.45e-04
  7.8061e+02   3.18e-04
  8.1265e+02   2.93e-04
  8.4601e+02   2.70e-04
  8.8075e+02   2.49e-04
  9.1690e+02   2.29e-04
  9.5455e+02   2.11e-04
  9.9373e+02   1.95e-04
  1.0345e+03   1.79e-04
  1.0770e+03   1.65e-04
  1.1212e+03   1.52e-04
  1.1672e+03   1.41e-04
  1.2152e+03   1.30e-04
  1.2650e+03   1.20e-04
  1.3170e+03   1.11e-04
  1.3711e+03   1.02e-04
  1.4273e+03   9.44e-05
  1.4859e+03   8.72e-05
  1.5469e+03   8.07e-05
  1.6104e+03   7.47e-05
  1.6766e+03   6.92e-05
  1.7454e+03   6.41e-05
  1.8170e+03   5.94e-05
  1.8916e+03   5.50e-05
  1.9693e+03   5.10e-05
  2.0501e+03   4.73e-05
  2.1343e+03   4.39e-05
  2.2219e+03   4.07e-05
  2.3131e+03   3.77e-05
  2.4081e+03   3.50e-05
  2.5070e+03   3.25e-05
  2.6099e+03   3.01e-05
  2.7170e+03   2.80e-05
  2.8286e+03   2.59e-05
  2.9447e+03   2.41e-05
  3.0656e+03   2.23e-05
  3.1914e+03   2.07e-05
  3.3225e+03   1.92e-05
  3.4589e+03   1.78e-05
  3.6008e+03   1.64e-05
  3.7487e+03   1.52e-05
  3.9026e+03   1.40e-05
  4.0628e+03   1.30e-05
  4.2296e+03   1.19e-05
  4.4032e+03   1.10e-05
  4.5840e+03   1.01e-05
  4.7722e+03   9.30e-06
  4.9681e+03   8.54e-06
  5.1720e+03   7.82e-06
  5.3844e+03   7.15e-06
  5.6054e+03   6.53e-06
  5.8355e+03   5.94e-06
  6.0751e+03   5.39e-06
  6.3245e+03   4.89e-06
  6.5841e+03   4.41e-06
  6.8544e+03   3.97e-06
  7.1358e+03   3.56e-06
  7.4288e+03   3.18e-06
  7.7338e+03   2.82e-06
  8.0513e+03   2.50e-06
  8.3818e+03   2.20e-06
  8.7259e+03   1.92e-06
  9.0841e+03   1.67e-06
  9.4571e+03   1.44e-06
  9.8453e+03   1.23e-06
  1.0249e+04   1.05e-06
  1.0670e+04   8.77e-07
  1.1108e+04   7.27e-07
  1.1564e+04   5.95e-07
  1.2039e+04   4.80e-07
  1.2533e+04   3.82e-07
  1.3048e+04   2.98e-07
  1.3584e+04   2.28e-07
  1.4141e+04   1.70e-07
  1.4722e+04   1.24e-07
  1.5326e+04   8.76e-08
  1.5955e+04   6.00e-08
  1.6610e+04   3.95e-08
  1.7292e+04   2.50e-08
  1.8002e+04   1.50e-08
  1.8741e+04   8.52e-09
  1.9511e+04   4.53e-09
  2.0312e+04   2.24e-09
  2.1145e+04   1.01e-09
  2.2013e+04   4.12e-10
  2.2917e+04   1.49e-10
  2.3858e+04   4.68e-11
  2.4837e+04   1.24e-11
  2.5857e+04   2.72e-12
  2.6919e+04   4.70e-13
  2.8024e+04   6.14e-14
  2.9174e+04   5.71e-15
  3.0372e+04   3.53e-16
  3.1619e+04   1.33e-17
  3.2917e+04   2.70e-19
  3.4268e+04   2.59e-21
  3.5675e+04   9.72e-24
  3.7140e+04   1.13e-26
  3.8664e+04   3.02e-30
  4.0252e+04   1.24e-34
  4.1904e+04   4.64e-40
  4.3624e+04   1.51e-46
  4.5415e+04   1.42e-46
  4.7280e+04   1.34e-46
  4.9221e+04   1.27e-46
  5.1241e+04   1.20e-46
  5.3345e+04   1.13e-46
  5.5535e+04   1.07e-46
  5.7815e+04   1.01e-46
  6.0188e+04   9.51e-47
  6.2659e+04   8.96e-47
  6.5232e+04   8.44e-47
  6.7910e+04   7.94e-47
  7.0698e+04   7.46e-47
  7.3600e+04   7.02e-47
  7.6621e+04   6.58e-47
  7.9767e+04   6.16e-47
  8.3042e+04   5.77e-47
  8.6451e+04   5.42e-47
  9.0000e+04   5.10e-47
