#  E [GeV]   # per interaction  [GeV^{-1}]
  3.0000e+01   1.97e-02
  3.0943e+01   1.90e-02
  3.1916e+01   1.83e-02
  3.2920e+01   1.77e-02
  3.3955e+01   1.70e-02
  3.5023e+01   1.65e-02
  3.6124e+01   1.59e-02
  3.7260e+01   1.53e-02
  3.8432e+01   1.48e-02
  3.9640e+01   1.42e-02
  4.0887e+01   1.37e-02
  4.2172e+01   1.33e-02
  4.3499e+01   1.28e-02
  4.4866e+01   1.23e-02
  4.6277e+01   1.19e-02
  4.7732e+01   1.15e-02
  4.9233e+01   1.11e-02
  5.0781e+01   1.07e-02
  5.2378e+01   1.03e-02
  5.4025e+01   9.92e-03
  5.5724e+01   9.56e-03
  5.7476e+01   9.22e-03
  5.9284e+01   8.89e-03
  6.1148e+01   8.58e-03
  6.3071e+01   8.27e-03
  6.5054e+01   7.98e-03
  6.7100e+01   7.70e-03
  6.9210e+01   7.43e-03
  7.1386e+01   7.16e-03
  7.3631e+01   6.91e-03
  7.5946e+01   6.67e-03
  7.8334e+01   6.43e-03
  8.0797e+01   6.21e-03
  8.3338e+01   6.00e-03
  8.5959e+01   5.79e-03
  8.8662e+01   5.59e-03
  9.1450e+01   5.40e-03
  9.4325e+01   5.21e-03
  9.7291e+01   5.04e-03
  1.0035e+02   4.87e-03
  1.0351e+02   4.71e-03
  1.0676e+02   4.55e-03
  1.1012e+02   4.40e-03
  1.1358e+02   4.25e-03
  1.1715e+02   4.12e-03
  1.2084e+02   3.98e-03
  1.2464e+02   3.85e-03
  1.2856e+02   3.73e-03
  1.3260e+02   3.62e-03
  1.3677e+02   3.50e-03
  1.4107e+02   3.39e-03
  1.4550e+02   3.29e-03
  1.5008e+02   3.19e-03
  1.5480e+02   3.09e-03
  1.5967e+02   3.00e-03
  1.6469e+02   2.91e-03
  1.6987e+02   2.82e-03
  1.7521e+02   2.74e-03
  1.8072e+02   2.66e-03
  1.8640e+02   2.58e-03
  1.9226e+02   2.51e-03
  1.9831e+02   2.44e-03
  2.0454e+02   2.37e-03
  2.1097e+02   2.31e-03
  2.1761e+02   2.25e-03
  2.2445e+02   2.19e-03
  2.3151e+02   2.13e-03
  2.3879e+02   2.07e-03
  2.4630e+02   2.02e-03
  2.5404e+02   1.97e-03
  2.6203e+02   1.92e-03
  2.7027e+02   1.87e-03
  2.7877e+02   1.82e-03
  2.8753e+02   1.77e-03
  2.9657e+02   1.73e-03
  3.0590e+02   1.69e-03
  3.1552e+02   1.65e-03
  3.2544e+02   1.61e-03
  3.3567e+02   1.57e-03
  3.4623e+02   1.53e-03
  3.5712e+02   1.49e-03
  3.6835e+02   1.46e-03
  3.7993e+02   1.42e-03
  3.9188e+02   1.39e-03
  4.0420e+02   1.36e-03
  4.1691e+02   1.33e-03
  4.3002e+02   1.30e-03
  4.4354e+02   1.27e-03
  4.5749e+02   1.24e-03
  4.7187e+02   1.21e-03
  4.8671e+02   1.18e-03
  5.0202e+02   1.15e-03
  5.1780e+02   1.13e-03
  5.3409e+02   1.10e-03
  5.5088e+02   1.08e-03
  5.6820e+02   1.05e-03
  5.8607e+02   1.03e-03
  6.0450e+02   1.00e-03
  6.2351e+02   9.81e-04
  6.4311e+02   9.59e-04
  6.6334e+02   9.37e-04
  6.8419e+02   9.15e-04
  7.0571e+02   8.94e-04
  7.2790e+02   8.73e-04
  7.5079e+02   8.53e-04
  7.7440e+02   8.33e-04
  7.9875e+02   8.13e-04
  8.2387e+02   7.93e-04
  8.4977e+02   7.74e-04
  8.7649e+02   7.56e-04
  9.0405e+02   7.37e-04
  9.3248e+02   7.19e-04
  9.6180e+02   7.01e-04
  9.9205e+02   6.84e-04
  1.0232e+03   6.67e-04
  1.0554e+03   6.50e-04
  1.0886e+03   6.33e-04
  1.1228e+03   6.17e-04
  1.1581e+03   6.00e-04
  1.1946e+03   5.85e-04
  1.2321e+03   5.69e-04
  1.2709e+03   5.54e-04
  1.3108e+03   5.39e-04
  1.3521e+03   5.24e-04
  1.3946e+03   5.10e-04
  1.4384e+03   4.95e-04
  1.4837e+03   4.80e-04
  1.5303e+03   4.67e-04
  1.5784e+03   4.53e-04
  1.6281e+03   4.39e-04
  1.6793e+03   4.25e-04
  1.7321e+03   4.12e-04
  1.7865e+03   3.99e-04
  1.8427e+03   3.86e-04
  1.9006e+03   3.74e-04
  1.9604e+03   3.62e-04
  2.0221e+03   3.50e-04
  2.0856e+03   3.37e-04
  2.1512e+03   3.26e-04
  2.2189e+03   3.15e-04
  2.2886e+03   3.03e-04
  2.3606e+03   2.92e-04
  2.4348e+03   2.81e-04
  2.5114e+03   2.70e-04
  2.5904e+03   2.60e-04
  2.6718e+03   2.49e-04
  2.7558e+03   2.39e-04
  2.8425e+03   2.30e-04
  2.9319e+03   2.20e-04
  3.0241e+03   2.10e-04
  3.1192e+03   2.01e-04
  3.2173e+03   1.91e-04
  3.3184e+03   1.82e-04
  3.4228e+03   1.74e-04
  3.5304e+03   1.66e-04
  3.6414e+03   1.57e-04
  3.7559e+03   1.49e-04
  3.8740e+03   1.41e-04
  3.9958e+03   1.34e-04
  4.1215e+03   1.26e-04
  4.2511e+03   1.19e-04
  4.3848e+03   1.13e-04
  4.5227e+03   1.06e-04
  4.6649e+03   9.96e-05
  4.8116e+03   9.35e-05
  4.9629e+03   8.77e-05
  5.1189e+03   8.20e-05
  5.2799e+03   7.65e-05
  5.4459e+03   7.14e-05
  5.6171e+03   6.64e-05
  5.7938e+03   6.15e-05
  5.9760e+03   5.69e-05
  6.1639e+03   5.25e-05
  6.3577e+03   4.83e-05
  6.5576e+03   4.43e-05
  6.7638e+03   4.06e-05
  6.9765e+03   3.71e-05
  7.1959e+03   3.38e-05
  7.4222e+03   3.07e-05
  7.6556e+03   2.78e-05
  7.8963e+03   2.51e-05
  8.1446e+03   2.27e-05
  8.4007e+03   2.04e-05
  8.6649e+03   1.82e-05
  8.9373e+03   1.63e-05
  9.2184e+03   1.45e-05
  9.5082e+03   1.28e-05
  9.8072e+03   1.13e-05
  1.0116e+04   9.95e-06
  1.0434e+04   8.77e-06
  1.0762e+04   7.66e-06
  1.1100e+04   6.63e-06
  1.1449e+04   5.83e-06
  1.1809e+04   5.10e-06
  1.2181e+04   4.42e-06
  1.2564e+04   3.81e-06
  1.2959e+04   3.38e-06
  1.3366e+04   2.97e-06
  1.3786e+04   2.59e-06
  1.4220e+04   2.30e-06
