#  E [GeV]   # per interaction  [GeV^{-1}]
  3.0000e+01   4.52e-01
  3.0782e+01   4.37e-01
  3.1585e+01   4.22e-01
  3.2409e+01   4.07e-01
  3.3255e+01   3.93e-01
  3.4122e+01   3.79e-01
  3.5012e+01   3.66e-01
  3.5925e+01   3.53e-01
  3.6862e+01   3.41e-01
  3.7824e+01   3.28e-01
  3.8810e+01   3.17e-01
  3.9822e+01   3.05e-01
  4.0861e+01   2.94e-01
  4.1927e+01   2.84e-01
  4.3021e+01   2.73e-01
  4.4143e+01   2.63e-01
  4.5294e+01   2.54e-01
  4.6475e+01   2.44e-01
  4.7688e+01   2.35e-01
  4.8931e+01   2.26e-01
  5.0208e+01   2.18e-01
  5.1517e+01   2.10e-01
  5.2861e+01   2.02e-01
  5.4240e+01   1.94e-01
  5.5654e+01   1.86e-01
  5.7106e+01   1.79e-01
  5.8596e+01   1.72e-01
  6.0124e+01   1.65e-01
  6.1692e+01   1.58e-01
  6.3301e+01   1.52e-01
  6.4952e+01   1.46e-01
  6.6647e+01   1.39e-01
  6.8385e+01   1.34e-01
  7.0169e+01   1.28e-01
  7.1999e+01   1.23e-01
  7.3877e+01   1.17e-01
  7.5804e+01   1.13e-01
  7.7781e+01   1.08e-01
  7.9810e+01   1.03e-01
  8.1891e+01   9.88e-02
  8.4027e+01   9.46e-02
  8.6219e+01   9.05e-02
  8.8468e+01   8.66e-02
  9.0775e+01   8.29e-02
  9.3143e+01   7.93e-02
  9.5572e+01   7.59e-02
  9.8065e+01   7.26e-02
  1.0062e+02   6.94e-02
  1.0325e+02   6.63e-02
  1.0594e+02   6.33e-02
  1.0870e+02   6.05e-02
  1.1154e+02   5.78e-02
  1.1445e+02   5.52e-02
  1.1743e+02   5.26e-02
  1.2050e+02   5.02e-02
  1.2364e+02   4.79e-02
  1.2686e+02   4.56e-02
  1.3017e+02   4.34e-02
  1.3357e+02   4.14e-02
  1.3705e+02   3.94e-02
  1.4063e+02   3.75e-02
  1.4429e+02   3.56e-02
  1.4806e+02   3.38e-02
  1.5192e+02   3.22e-02
  1.5588e+02   3.05e-02
  1.5995e+02   2.90e-02
  1.6412e+02   2.75e-02
  1.6840e+02   2.61e-02
  1.7279e+02   2.47e-02
  1.7730e+02   2.34e-02
  1.8193e+02   2.22e-02
  1.8667e+02   2.10e-02
  1.9154e+02   1.99e-02
  1.9654e+02   1.88e-02
  2.0166e+02   1.77e-02
  2.0692e+02   1.67e-02
  2.1232e+02   1.58e-02
  2.1786e+02   1.49e-02
  2.2354e+02   1.40e-02
  2.2937e+02   1.32e-02
  2.3535e+02   1.24e-02
  2.4149e+02   1.17e-02
  2.4779e+02   1.10e-02
  2.5425e+02   1.03e-02
  2.6088e+02   9.67e-03
  2.6769e+02   9.07e-03
  2.7467e+02   8.50e-03
  2.8184e+02   7.95e-03
  2.8919e+02   7.43e-03
  2.9673e+02   6.94e-03
  3.0447e+02   6.48e-03
  3.1241e+02   6.05e-03
  3.2056e+02   5.63e-03
  3.2892e+02   5.24e-03
  3.3750e+02   4.88e-03
  3.4630e+02   4.54e-03
  3.5533e+02   4.21e-03
  3.6460e+02   3.90e-03
  3.7411e+02   3.61e-03
  3.8387e+02   3.35e-03
  3.9388e+02   3.10e-03
  4.0416e+02   2.86e-03
  4.1470e+02   2.63e-03
  4.2551e+02   2.43e-03
  4.3661e+02   2.24e-03
  4.4800e+02   2.06e-03
  4.5969e+02   1.89e-03
  4.7168e+02   1.74e-03
  4.8398e+02   1.60e-03
  4.9660e+02   1.46e-03
  5.0956e+02   1.34e-03
  5.2285e+02   1.22e-03
  5.3648e+02   1.11e-03
  5.5048e+02   1.02e-03
  5.6483e+02   9.26e-04
  5.7957e+02   8.40e-04
  5.9468e+02   7.64e-04
  6.1020e+02   6.96e-04
  6.2611e+02   6.31e-04
  6.4244e+02   5.71e-04
  6.5920e+02   5.15e-04
  6.7639e+02   4.68e-04
  6.9403e+02   4.24e-04
  7.1214e+02   3.82e-04
  7.3071e+02   3.43e-04
  7.4977e+02   3.10e-04
  7.6933e+02   2.80e-04
  7.8939e+02   2.52e-04
  8.0998e+02   2.26e-04
  8.3111e+02   2.02e-04
  8.5279e+02   1.82e-04
  8.7503e+02   1.64e-04
  8.9785e+02   1.47e-04
  9.2127e+02   1.31e-04
  9.4530e+02   1.17e-04
  9.6996e+02   1.05e-04
  9.9526e+02   9.39e-05
  1.0212e+03   8.35e-05
  1.0479e+03   7.40e-05
  1.0752e+03   6.64e-05
  1.1032e+03   5.93e-05
  1.1320e+03   5.26e-05
  1.1615e+03   4.64e-05
  1.1918e+03   4.14e-05
  1.2229e+03   3.69e-05
  1.2548e+03   3.28e-05
  1.2875e+03   2.89e-05
  1.3211e+03   2.55e-05
  1.3556e+03   2.28e-05
  1.3909e+03   2.02e-05
  1.4272e+03   1.79e-05
  1.4644e+03   1.56e-05
  1.5026e+03   1.39e-05
  1.5418e+03   1.24e-05
  1.5820e+03   1.09e-05
  1.6233e+03   9.57e-06
  1.6657e+03   8.39e-06
  1.7091e+03   7.47e-06
  1.7537e+03   6.61e-06
  1.7994e+03   5.80e-06
  1.8464e+03   5.04e-06
  1.8945e+03   4.48e-06
  1.9439e+03   3.97e-06
  1.9946e+03   3.50e-06
  2.0467e+03   3.05e-06
  2.1000e+03   2.67e-06
  2.1548e+03   2.38e-06
  2.2110e+03   2.11e-06
  2.2687e+03   1.85e-06
  2.3279e+03   1.60e-06
  2.3886e+03   1.43e-06
  2.4509e+03   1.28e-06
  2.5148e+03   1.13e-06
  2.5804e+03   9.91e-07
  2.6477e+03   8.75e-07
  2.7168e+03   7.86e-07
  2.7876e+03   7.02e-07
  2.8603e+03   6.22e-07
  2.9349e+03   5.47e-07
  3.0115e+03   4.97e-07
  3.0900e+03   4.51e-07
  3.1706e+03   4.07e-07
  3.2533e+03   3.66e-07
  3.3382e+03   3.31e-07
  3.4253e+03   3.03e-07
  3.5146e+03   2.77e-07
  3.6063e+03   2.52e-07
  3.7003e+03   2.29e-07
  3.7969e+03   2.09e-07
  3.8959e+03   1.91e-07
  3.9975e+03   1.74e-07
  4.1018e+03   1.57e-07
  4.2088e+03   1.42e-07
  4.3185e+03   1.29e-07
  4.4312e+03   1.16e-07
  4.5467e+03   1.05e-07
  4.6653e+03   9.36e-08
  4.7870e+03   8.58e-08
  4.9119e+03   7.83e-08
  5.0400e+03   7.13e-08
