#  E [MeV]   Flux [# cm^{-2} s^{-1}  MeV^{-1}]
  3.0000e+04   1.69e-19
  3.1033e+04   1.62e-19
  3.2102e+04   1.55e-19
  3.3207e+04   1.49e-19
  3.4350e+04   1.43e-19
  3.5533e+04   1.37e-19
  3.6757e+04   1.31e-19
  3.8022e+04   1.25e-19
  3.9332e+04   1.20e-19
  4.0686e+04   1.15e-19
  4.2087e+04   1.10e-19
  4.3536e+04   1.05e-19
  4.5035e+04   1.01e-19
  4.6586e+04   9.62e-20
  4.8190e+04   9.21e-20
  4.9850e+04   8.81e-20
  5.1566e+04   8.42e-20
  5.3342e+04   8.05e-20
  5.5178e+04   7.70e-20
  5.7078e+04   7.36e-20
  5.9044e+04   7.04e-20
  6.1077e+04   6.73e-20
  6.3180e+04   6.43e-20
  6.5356e+04   6.14e-20
  6.7606e+04   5.87e-20
  6.9934e+04   5.61e-20
  7.2342e+04   5.36e-20
  7.4833e+04   5.12e-20
  7.7410e+04   4.89e-20
  8.0075e+04   4.67e-20
  8.2833e+04   4.46e-20
  8.5685e+04   4.26e-20
  8.8635e+04   4.06e-20
  9.1687e+04   3.88e-20
  9.4844e+04   3.70e-20
  9.8110e+04   3.53e-20
  1.0149e+05   3.37e-20
  1.0498e+05   3.21e-20
  1.0860e+05   3.06e-20
  1.1234e+05   2.92e-20
  1.1621e+05   2.79e-20
  1.2021e+05   2.66e-20
  1.2435e+05   2.53e-20
  1.2863e+05   2.41e-20
  1.3306e+05   2.30e-20
  1.3764e+05   2.19e-20
  1.4238e+05   2.09e-20
  1.4728e+05   1.99e-20
  1.5235e+05   1.89e-20
  1.5760e+05   1.80e-20
  1.6302e+05   1.72e-20
  1.6864e+05   1.63e-20
  1.7445e+05   1.55e-20
  1.8045e+05   1.48e-20
  1.8667e+05   1.40e-20
  1.9309e+05   1.33e-20
  1.9974e+05   1.27e-20
  2.0662e+05   1.20e-20
  2.1373e+05   1.14e-20
  2.2109e+05   1.08e-20
  2.2871e+05   1.03e-20
  2.3658e+05   9.75e-21
  2.4473e+05   9.24e-21
  2.5316e+05   8.75e-21
  2.6187e+05   8.28e-21
  2.7089e+05   7.84e-21
  2.8022e+05   7.41e-21
  2.8987e+05   7.00e-21
  2.9985e+05   6.61e-21
  3.1017e+05   6.24e-21
  3.2085e+05   5.88e-21
  3.3190e+05   5.54e-21
  3.4333e+05   5.22e-21
  3.5515e+05   4.92e-21
  3.6738e+05   4.63e-21
  3.8003e+05   4.35e-21
  3.9312e+05   4.09e-21
  4.0665e+05   3.84e-21
  4.2066e+05   3.61e-21
  4.3514e+05   3.39e-21
  4.5013e+05   3.18e-21
  4.6562e+05   2.99e-21
  4.8166e+05   2.80e-21
  4.9824e+05   2.63e-21
  5.1540e+05   2.46e-21
  5.3315e+05   2.31e-21
  5.5150e+05   2.16e-21
  5.7050e+05   2.02e-21
  5.9014e+05   1.89e-21
  6.1046e+05   1.77e-21
  6.3148e+05   1.65e-21
  6.5322e+05   1.54e-21
  6.7572e+05   1.44e-21
  6.9898e+05   1.34e-21
  7.2305e+05   1.25e-21
  7.4795e+05   1.16e-21
  7.7371e+05   1.08e-21
  8.0035e+05   1.00e-21
  8.2791e+05   9.33e-22
  8.5641e+05   8.66e-22
  8.8590e+05   8.04e-22
  9.1641e+05   7.46e-22
  9.4796e+05   6.91e-22
  9.8061e+05   6.40e-22
  1.0144e+06   5.93e-22
  1.0493e+06   5.49e-22
  1.0854e+06   5.08e-22
  1.1228e+06   4.69e-22
  1.1615e+06   4.34e-22
  1.2015e+06   4.00e-22
  1.2428e+06   3.69e-22
  1.2856e+06   3.40e-22
  1.3299e+06   3.13e-22
  1.3757e+06   2.88e-22
  1.4231e+06   2.65e-22
  1.4721e+06   2.43e-22
  1.5228e+06   2.23e-22
  1.5752e+06   2.05e-22
  1.6294e+06   1.88e-22
  1.6855e+06   1.72e-22
  1.7436e+06   1.57e-22
  1.8036e+06   1.44e-22
  1.8657e+06   1.31e-22
  1.9300e+06   1.19e-22
  1.9964e+06   1.09e-22
  2.0652e+06   9.91e-23
  2.1363e+06   9.00e-23
  2.2098e+06   8.17e-23
  2.2859e+06   7.42e-23
  2.3646e+06   6.73e-23
  2.4461e+06   6.07e-23
  2.5303e+06   5.50e-23
  2.6174e+06   4.96e-23
  2.7075e+06   4.46e-23
  2.8008e+06   4.01e-23
  2.8972e+06   3.61e-23
  2.9970e+06   3.23e-23
  3.1002e+06   2.89e-23
  3.2069e+06   2.59e-23
  3.3173e+06   2.32e-23
  3.4316e+06   2.06e-23
  3.5497e+06   1.83e-23
  3.6720e+06   1.63e-23
  3.7984e+06   1.45e-23
  3.9292e+06   1.28e-23
  4.0645e+06   1.14e-23
  4.2044e+06   1.00e-23
  4.3492e+06   8.76e-24
  4.4990e+06   7.76e-24
  4.6539e+06   6.83e-24
  4.8141e+06   5.96e-24
  4.9799e+06   5.21e-24
  5.1514e+06   4.57e-24
  5.3288e+06   3.97e-24
  5.5123e+06   3.42e-24
  5.7021e+06   2.99e-24
  5.8984e+06   2.59e-24
  6.1015e+06   2.22e-24
  6.3116e+06   1.92e-24
  6.5289e+06   1.66e-24
  6.7538e+06   1.42e-24
  6.9863e+06   1.21e-24
  7.2269e+06   1.04e-24
  7.4757e+06   8.91e-25
  7.7331e+06   7.48e-25
  7.9994e+06   6.43e-25
  8.2749e+06   5.47e-25
  8.5598e+06   4.59e-25
  8.8546e+06   3.88e-25
  9.1594e+06   3.29e-25
  9.4748e+06   2.76e-25
  9.8011e+06   2.29e-25
  1.0139e+07   1.94e-25
  1.0488e+07   1.63e-25
  1.0849e+07   1.34e-25
  1.1222e+07   1.13e-25
  1.1609e+07   9.45e-26
  1.2009e+07   7.81e-26
  1.2422e+07   6.44e-26
  1.2850e+07   5.41e-26
  1.3292e+07   4.48e-26
  1.3750e+07   3.65e-26
  1.4223e+07   3.04e-26
  1.4713e+07   2.51e-26
  1.5220e+07   2.04e-26
  1.5744e+07   1.67e-26
  1.6286e+07   1.37e-26
  1.6847e+07   1.11e-26
  1.7427e+07   8.86e-27
  1.8027e+07   7.12e-27
  1.8648e+07   5.62e-27
  1.9290e+07   4.35e-27
  1.9954e+07   3.33e-27
  2.0641e+07   2.50e-27
  2.1352e+07   1.83e-27
  2.2087e+07   1.31e-27
  2.2848e+07   9.02e-28
  2.3634e+07   6.00e-28
  2.4448e+07   3.82e-28
  2.5290e+07   2.38e-28
