#  E [MeV]   Flux [# cm^{-2} s^{-1}  MeV^{-1}]
  3.0000e+04   7.15e-26
  3.1232e+04   6.84e-26
  3.2514e+04   6.54e-26
  3.3849e+04   6.26e-26
  3.5238e+04   5.99e-26
  3.6685e+04   5.73e-26
  3.8191e+04   5.48e-26
  3.9759e+04   5.24e-26
  4.1391e+04   5.01e-26
  4.3090e+04   4.79e-26
  4.4859e+04   4.58e-26
  4.6701e+04   4.38e-26
  4.8618e+04   4.19e-26
  5.0614e+04   4.00e-26
  5.2692e+04   3.83e-26
  5.4855e+04   3.66e-26
  5.7107e+04   3.50e-26
  5.9451e+04   3.34e-26
  6.1892e+04   3.19e-26
  6.4433e+04   3.05e-26
  6.7078e+04   2.92e-26
  6.9832e+04   2.78e-26
  7.2699e+04   2.66e-26
  7.5683e+04   2.54e-26
  7.8790e+04   2.43e-26
  8.2025e+04   2.32e-26
  8.5392e+04   2.21e-26
  8.8898e+04   2.11e-26
  9.2547e+04   2.02e-26
  9.6347e+04   1.92e-26
  1.0030e+05   1.84e-26
  1.0442e+05   1.75e-26
  1.0871e+05   1.67e-26
  1.1317e+05   1.59e-26
  1.1782e+05   1.52e-26
  1.2265e+05   1.45e-26
  1.2769e+05   1.38e-26
  1.3293e+05   1.32e-26
  1.3839e+05   1.26e-26
  1.4407e+05   1.20e-26
  1.4998e+05   1.14e-26
  1.5614e+05   1.08e-26
  1.6255e+05   1.03e-26
  1.6922e+05   9.81e-27
  1.7617e+05   9.33e-27
  1.8340e+05   8.87e-27
  1.9093e+05   8.43e-27
  1.9877e+05   8.00e-27
  2.0693e+05   7.60e-27
  2.1543e+05   7.21e-27
  2.2427e+05   6.84e-27
  2.3348e+05   6.48e-27
  2.4306e+05   6.14e-27
  2.5304e+05   5.82e-27
  2.6343e+05   5.51e-27
  2.7424e+05   5.21e-27
  2.8550e+05   4.92e-27
  2.9722e+05   4.65e-27
  3.0942e+05   4.39e-27
  3.2213e+05   4.14e-27
  3.3535e+05   3.90e-27
  3.4912e+05   3.67e-27
  3.6345e+05   3.46e-27
  3.7837e+05   3.25e-27
  3.9390e+05   3.05e-27
  4.1008e+05   2.87e-27
  4.2691e+05   2.69e-27
  4.4444e+05   2.52e-27
  4.6268e+05   2.36e-27
  4.8168e+05   2.21e-27
  5.0145e+05   2.06e-27
  5.2204e+05   1.93e-27
  5.4347e+05   1.80e-27
  5.6578e+05   1.68e-27
  5.8901e+05   1.56e-27
  6.1319e+05   1.46e-27
  6.3836e+05   1.35e-27
  6.6457e+05   1.26e-27
  6.9185e+05   1.17e-27
  7.2025e+05   1.09e-27
  7.4982e+05   1.01e-27
  7.8061e+05   9.35e-28
  8.1265e+05   8.67e-28
  8.4601e+05   8.03e-28
  8.8075e+05   7.44e-28
  9.1690e+05   6.89e-28
  9.5455e+05   6.37e-28
  9.9373e+05   5.90e-28
  1.0345e+06   5.45e-28
  1.0770e+06   5.04e-28
  1.1212e+06   4.66e-28
  1.1672e+06   4.31e-28
  1.2152e+06   3.98e-28
  1.2650e+06   3.67e-28
  1.3170e+06   3.39e-28
  1.3711e+06   3.13e-28
  1.4273e+06   2.89e-28
  1.4859e+06   2.67e-28
  1.5469e+06   2.46e-28
  1.6104e+06   2.27e-28
  1.6766e+06   2.10e-28
  1.7454e+06   1.93e-28
  1.8170e+06   1.78e-28
  1.8916e+06   1.64e-28
  1.9693e+06   1.51e-28
  2.0501e+06   1.39e-28
  2.1343e+06   1.28e-28
  2.2219e+06   1.18e-28
  2.3131e+06   1.08e-28
  2.4081e+06   9.93e-29
  2.5070e+06   9.12e-29
  2.6099e+06   8.36e-29
  2.7170e+06   7.65e-29
  2.8286e+06   7.01e-29
  2.9447e+06   6.41e-29
  3.0656e+06   5.85e-29
  3.1914e+06   5.34e-29
  3.3225e+06   4.86e-29
  3.4589e+06   4.42e-29
  3.6008e+06   4.02e-29
  3.7487e+06   3.65e-29
  3.9026e+06   3.31e-29
  4.0628e+06   2.99e-29
  4.2296e+06   2.70e-29
  4.4032e+06   2.44e-29
  4.5840e+06   2.19e-29
  4.7722e+06   1.96e-29
  4.9681e+06   1.76e-29
  5.1720e+06   1.57e-29
  5.3844e+06   1.40e-29
  5.6054e+06   1.25e-29
  5.8355e+06   1.11e-29
  6.0751e+06   9.77e-30
  6.3245e+06   8.63e-30
  6.5841e+06   7.58e-30
  6.8544e+06   6.63e-30
  7.1358e+06   5.80e-30
  7.4288e+06   5.04e-30
  7.7338e+06   4.36e-30
  8.0513e+06   3.76e-30
  8.3818e+06   3.22e-30
  8.7259e+06   2.75e-30
  9.0841e+06   2.33e-30
  9.4571e+06   1.96e-30
  9.8453e+06   1.64e-30
  1.0249e+07   1.37e-30
  1.0670e+07   1.12e-30
  1.1108e+07   9.21e-31
  1.1564e+07   7.46e-31
  1.2039e+07   5.96e-31
  1.2533e+07   4.73e-31
  1.3048e+07   3.70e-31
  1.3584e+07   2.84e-31
  1.4141e+07   2.17e-31
  1.4722e+07   1.61e-31
  1.5326e+07   1.17e-31
  1.5955e+07   8.42e-32
  1.6610e+07   5.86e-32
  1.7292e+07   3.95e-32
  1.8002e+07   2.59e-32
  1.8741e+07   1.63e-32
  1.9511e+07   9.81e-33
  2.0312e+07   5.64e-33
  2.1145e+07   3.04e-33
  2.2013e+07   1.54e-33
  2.2917e+07   7.20e-34
  2.3858e+07   3.04e-34
  2.4837e+07   1.16e-34
  2.5857e+07   3.90e-35
  2.6919e+07   1.11e-35
  2.8024e+07   2.64e-36
  2.9174e+07   5.00e-37
  3.0372e+07   7.12e-38
  3.1619e+07   7.38e-39
  3.2917e+07   5.01e-40
  3.4268e+07   2.02e-41
  3.5675e+07   4.36e-43
  3.7140e+07   4.15e-45
  3.8664e+07   1.42e-47
  4.0252e+07   1.33e-50
  4.1904e+07   2.27e-54
  4.3624e+07   4.31e-59
  4.5415e+07   4.64e-65
  4.7280e+07   3.12e-72
  4.9221e+07   2.67e-72
  5.1241e+07   2.29e-72
  5.3345e+07   1.95e-72
  5.5535e+07   1.68e-72
  5.7815e+07   1.45e-72
  6.0188e+07   1.24e-72
  6.2659e+07   1.08e-72
  6.5232e+07   9.45e-73
  6.7910e+07   8.16e-73
  7.0698e+07   7.27e-73
  7.3600e+07   6.45e-73
  7.6621e+07   5.70e-73
  7.9767e+07   5.14e-73
  8.3042e+07   4.62e-73
  8.6451e+07   4.16e-73
  9.0000e+07   3.81e-73
