#  E [MeV]   Flux [# cm^{-2} s^{-1}  MeV^{-1}]
  3.0000e+04   7.66e-25
  3.1141e+04   7.33e-25
  3.2326e+04   7.01e-25
  3.3556e+04   6.70e-25
  3.4832e+04   6.40e-25
  3.6157e+04   6.12e-25
  3.7533e+04   5.85e-25
  3.8961e+04   5.59e-25
  4.0443e+04   5.34e-25
  4.1982e+04   5.10e-25
  4.3579e+04   4.87e-25
  4.5237e+04   4.65e-25
  4.6958e+04   4.44e-25
  4.8744e+04   4.23e-25
  5.0598e+04   4.04e-25
  5.2523e+04   3.85e-25
  5.4521e+04   3.68e-25
  5.6596e+04   3.51e-25
  5.8749e+04   3.34e-25
  6.0984e+04   3.19e-25
  6.3304e+04   3.04e-25
  6.5712e+04   2.90e-25
  6.8212e+04   2.76e-25
  7.0807e+04   2.63e-25
  7.3500e+04   2.51e-25
  7.6297e+04   2.39e-25
  7.9199e+04   2.28e-25
  8.2212e+04   2.17e-25
  8.5340e+04   2.06e-25
  8.8586e+04   1.96e-25
  9.1956e+04   1.87e-25
  9.5455e+04   1.78e-25
  9.9086e+04   1.69e-25
  1.0286e+05   1.61e-25
  1.0677e+05   1.53e-25
  1.1083e+05   1.45e-25
  1.1505e+05   1.38e-25
  1.1942e+05   1.31e-25
  1.2397e+05   1.25e-25
  1.2868e+05   1.19e-25
  1.3358e+05   1.13e-25
  1.3866e+05   1.07e-25
  1.4394e+05   1.02e-25
  1.4941e+05   9.65e-26
  1.5509e+05   9.16e-26
  1.6100e+05   8.69e-26
  1.6712e+05   8.24e-26
  1.7348e+05   7.82e-26
  1.8008e+05   7.41e-26
  1.8693e+05   7.02e-26
  1.9404e+05   6.65e-26
  2.0142e+05   6.30e-26
  2.0908e+05   5.97e-26
  2.1704e+05   5.65e-26
  2.2529e+05   5.35e-26
  2.3387e+05   5.06e-26
  2.4276e+05   4.79e-26
  2.5200e+05   4.53e-26
  2.6158e+05   4.28e-26
  2.7154e+05   4.04e-26
  2.8187e+05   3.82e-26
  2.9259e+05   3.61e-26
  3.0372e+05   3.40e-26
  3.1527e+05   3.21e-26
  3.2727e+05   3.03e-26
  3.3972e+05   2.85e-26
  3.5264e+05   2.69e-26
  3.6606e+05   2.53e-26
  3.7998e+05   2.38e-26
  3.9444e+05   2.24e-26
  4.0945e+05   2.11e-26
  4.2502e+05   1.98e-26
  4.4119e+05   1.86e-26
  4.5798e+05   1.75e-26
  4.7540e+05   1.64e-26
  4.9348e+05   1.54e-26
  5.1226e+05   1.45e-26
  5.3175e+05   1.35e-26
  5.5198e+05   1.27e-26
  5.7297e+05   1.19e-26
  5.9477e+05   1.11e-26
  6.1740e+05   1.04e-26
  6.4089e+05   9.74e-27
  6.6527e+05   9.10e-27
  6.9058e+05   8.50e-27
  7.1685e+05   7.94e-27
  7.4412e+05   7.42e-27
  7.7243e+05   6.92e-27
  8.0181e+05   6.45e-27
  8.3232e+05   6.02e-27
  8.6398e+05   5.60e-27
  8.9685e+05   5.22e-27
  9.3097e+05   4.86e-27
  9.6638e+05   4.52e-27
  1.0031e+06   4.20e-27
  1.0413e+06   3.91e-27
  1.0809e+06   3.63e-27
  1.1220e+06   3.37e-27
  1.1647e+06   3.13e-27
  1.2090e+06   2.90e-27
  1.2550e+06   2.68e-27
  1.3028e+06   2.49e-27
  1.3523e+06   2.30e-27
  1.4038e+06   2.13e-27
  1.4572e+06   1.97e-27
  1.5126e+06   1.81e-27
  1.5702e+06   1.67e-27
  1.6299e+06   1.54e-27
  1.6919e+06   1.42e-27
  1.7563e+06   1.31e-27
  1.8231e+06   1.20e-27
  1.8925e+06   1.11e-27
  1.9645e+06   1.02e-27
  2.0392e+06   9.34e-28
  2.1168e+06   8.57e-28
  2.1973e+06   7.84e-28
  2.2809e+06   7.19e-28
  2.3677e+06   6.58e-28
  2.4577e+06   6.00e-28
  2.5512e+06   5.48e-28
  2.6483e+06   5.00e-28
  2.7490e+06   4.55e-28
  2.8536e+06   4.14e-28
  2.9622e+06   3.76e-28
  3.0749e+06   3.41e-28
  3.1918e+06   3.09e-28
  3.3133e+06   2.81e-28
  3.4393e+06   2.54e-28
  3.5702e+06   2.29e-28
  3.7060e+06   2.07e-28
  3.8470e+06   1.87e-28
  3.9933e+06   1.68e-28
  4.1452e+06   1.51e-28
  4.3029e+06   1.36e-28
  4.4666e+06   1.21e-28
  4.6366e+06   1.09e-28
  4.8129e+06   9.77e-29
  4.9960e+06   8.70e-29
  5.1861e+06   7.79e-29
  5.3834e+06   6.93e-29
  5.5882e+06   6.13e-29
  5.8008e+06   5.47e-29
  6.0215e+06   4.85e-29
  6.2506e+06   4.28e-29
  6.4883e+06   3.80e-29
  6.7352e+06   3.35e-29
  6.9914e+06   2.94e-29
  7.2574e+06   2.60e-29
  7.5335e+06   2.29e-29
  7.8201e+06   1.99e-29
  8.1176e+06   1.75e-29
  8.4264e+06   1.54e-29
  8.7470e+06   1.34e-29
  9.0797e+06   1.17e-29
  9.4251e+06   1.02e-29
  9.7837e+06   8.82e-30
  1.0156e+07   7.65e-30
  1.0542e+07   6.65e-30
  1.0943e+07   5.72e-30
  1.1360e+07   4.93e-30
  1.1792e+07   4.27e-30
  1.2240e+07   3.65e-30
  1.2706e+07   3.13e-30
  1.3189e+07   2.70e-30
  1.3691e+07   2.30e-30
  1.4212e+07   1.96e-30
  1.4753e+07   1.68e-30
  1.5314e+07   1.42e-30
  1.5897e+07   1.20e-30
  1.6501e+07   1.03e-30
  1.7129e+07   8.65e-31
  1.7781e+07   7.23e-31
  1.8457e+07   6.12e-31
  1.9159e+07   5.11e-31
  1.9888e+07   4.22e-31
  2.0645e+07   3.53e-31
  2.1430e+07   2.91e-31
  2.2245e+07   2.36e-31
  2.3092e+07   1.94e-31
  2.3970e+07   1.56e-31
  2.4882e+07   1.24e-31
  2.5829e+07   9.74e-32
  2.6811e+07   7.51e-32
  2.7831e+07   5.62e-32
  2.8890e+07   4.12e-32
  2.9989e+07   2.92e-32
  3.1130e+07   1.97e-32
  3.2314e+07   1.28e-32
  3.3544e+07   7.77e-33
  3.4820e+07   4.37e-33
  3.6144e+07   2.25e-33
  3.7519e+07   1.03e-33
  3.8947e+07   4.10e-34
  4.0428e+07   1.36e-34
  4.1966e+07   3.58e-35
  4.3563e+07   7.05e-36
  4.5220e+07   9.61e-37
  4.6941e+07   8.13e-38
  4.8726e+07   3.71e-39
  5.0580e+07   7.65e-41
