#  E [MeV]   Flux [# cm^{-2} s^{-1}  MeV^{-1}]
  3.0000e+04   1.50e-17
  3.0589e+04   1.45e-17
  3.1190e+04   1.40e-17
  3.1803e+04   1.36e-17
  3.2428e+04   1.31e-17
  3.3065e+04   1.27e-17
  3.3714e+04   1.23e-17
  3.4376e+04   1.19e-17
  3.5052e+04   1.15e-17
  3.5740e+04   1.11e-17
  3.6442e+04   1.08e-17
  3.7158e+04   1.04e-17
  3.7888e+04   1.01e-17
  3.8632e+04   9.72e-18
  3.9391e+04   9.39e-18
  4.0165e+04   9.07e-18
  4.0954e+04   8.76e-18
  4.1758e+04   8.46e-18
  4.2579e+04   8.16e-18
  4.3415e+04   7.88e-18
  4.4268e+04   7.60e-18
  4.5138e+04   7.33e-18
  4.6024e+04   7.07e-18
  4.6928e+04   6.82e-18
  4.7850e+04   6.58e-18
  4.8790e+04   6.34e-18
  4.9749e+04   6.11e-18
  5.0726e+04   5.89e-18
  5.1722e+04   5.67e-18
  5.2738e+04   5.46e-18
  5.3774e+04   5.26e-18
  5.4831e+04   5.07e-18
  5.5908e+04   4.87e-18
  5.7006e+04   4.69e-18
  5.8126e+04   4.51e-18
  5.9268e+04   4.34e-18
  6.0432e+04   4.18e-18
  6.1619e+04   4.01e-18
  6.2829e+04   3.86e-18
  6.4064e+04   3.71e-18
  6.5322e+04   3.56e-18
  6.6605e+04   3.42e-18
  6.7913e+04   3.28e-18
  6.9248e+04   3.15e-18
  7.0608e+04   3.02e-18
  7.1995e+04   2.90e-18
  7.3409e+04   2.78e-18
  7.4851e+04   2.67e-18
  7.6321e+04   2.56e-18
  7.7821e+04   2.45e-18
  7.9349e+04   2.34e-18
  8.0908e+04   2.24e-18
  8.2497e+04   2.15e-18
  8.4118e+04   2.06e-18
  8.5770e+04   1.97e-18
  8.7455e+04   1.88e-18
  8.9173e+04   1.80e-18
  9.0925e+04   1.72e-18
  9.2711e+04   1.64e-18
  9.4532e+04   1.57e-18
  9.6389e+04   1.50e-18
  9.8283e+04   1.43e-18
  1.0021e+05   1.36e-18
  1.0218e+05   1.30e-18
  1.0419e+05   1.24e-18
  1.0624e+05   1.18e-18
  1.0832e+05   1.12e-18
  1.1045e+05   1.07e-18
  1.1262e+05   1.02e-18
  1.1483e+05   9.69e-19
  1.1709e+05   9.23e-19
  1.1939e+05   8.78e-19
  1.2173e+05   8.34e-19
  1.2412e+05   7.92e-19
  1.2656e+05   7.51e-19
  1.2905e+05   7.14e-19
  1.3158e+05   6.78e-19
  1.3417e+05   6.43e-19
  1.3680e+05   6.10e-19
  1.3949e+05   5.77e-19
  1.4223e+05   5.46e-19
  1.4503e+05   5.18e-19
  1.4787e+05   4.90e-19
  1.5078e+05   4.64e-19
  1.5374e+05   4.38e-19
  1.5676e+05   4.13e-19
  1.5984e+05   3.89e-19
  1.6298e+05   3.68e-19
  1.6618e+05   3.48e-19
  1.6945e+05   3.28e-19
  1.7278e+05   3.09e-19
  1.7617e+05   2.90e-19
  1.7963e+05   2.73e-19
  1.8316e+05   2.58e-19
  1.8676e+05   2.43e-19
  1.9042e+05   2.28e-19
  1.9417e+05   2.14e-19
  1.9798e+05   2.01e-19
  2.0187e+05   1.88e-19
  2.0583e+05   1.77e-19
  2.0988e+05   1.66e-19
  2.1400e+05   1.56e-19
  2.1820e+05   1.46e-19
  2.2249e+05   1.36e-19
  2.2686e+05   1.27e-19
  2.3132e+05   1.20e-19
  2.3586e+05   1.12e-19
  2.4049e+05   1.05e-19
  2.4522e+05   9.77e-20
  2.5004e+05   9.08e-20
  2.5495e+05   8.47e-20
  2.5996e+05   7.93e-20
  2.6506e+05   7.41e-20
  2.7027e+05   6.90e-20
  2.7558e+05   6.41e-20
  2.8099e+05   5.94e-20
  2.8651e+05   5.52e-20
  2.9214e+05   5.15e-20
  2.9788e+05   4.80e-20
  3.0373e+05   4.45e-20
  3.0970e+05   4.12e-20
  3.1578e+05   3.79e-20
  3.2198e+05   3.52e-20
  3.2831e+05   3.27e-20
  3.3476e+05   3.04e-20
  3.4133e+05   2.81e-20
  3.4804e+05   2.59e-20
  3.5487e+05   2.37e-20
  3.6185e+05   2.20e-20
  3.6895e+05   2.04e-20
  3.7620e+05   1.88e-20
  3.8359e+05   1.73e-20
  3.9113e+05   1.59e-20
  3.9881e+05   1.45e-20
  4.0664e+05   1.34e-20
  4.1463e+05   1.24e-20
  4.2278e+05   1.14e-20
  4.3108e+05   1.05e-20
  4.3955e+05   9.60e-21
  4.4818e+05   8.72e-21
  4.5699e+05   8.05e-21
  4.6596e+05   7.42e-21
  4.7512e+05   6.82e-21
  4.8445e+05   6.24e-21
  4.9397e+05   5.68e-21
  5.0367e+05   5.13e-21
  5.1356e+05   4.74e-21
  5.2365e+05   4.36e-21
  5.3394e+05   3.99e-21
  5.4443e+05   3.64e-21
  5.5512e+05   3.30e-21
  5.6603e+05   2.97e-21
  5.7715e+05   2.73e-21
  5.8848e+05   2.51e-21
  6.0004e+05   2.29e-21
  6.1183e+05   2.07e-21
  6.2385e+05   1.87e-21
  6.3610e+05   1.68e-21
  6.4860e+05   1.54e-21
  6.6134e+05   1.41e-21
  6.7433e+05   1.29e-21
  6.8758e+05   1.17e-21
  7.0108e+05   1.05e-21
  7.1486e+05   9.45e-22
  7.2890e+05   8.69e-22
  7.4322e+05   7.97e-22
  7.5782e+05   7.27e-22
  7.7270e+05   6.59e-22
  7.8788e+05   5.94e-22
  8.0336e+05   5.37e-22
  8.1914e+05   4.95e-22
  8.3523e+05   4.55e-22
  8.5164e+05   4.16e-22
  8.6837e+05   3.78e-22
  8.8542e+05   3.42e-22
  9.0282e+05   3.12e-22
  9.2055e+05   2.90e-22
  9.3863e+05   2.68e-22
  9.5707e+05   2.48e-22
  9.7587e+05   2.28e-22
  9.9504e+05   2.09e-22
  1.0146e+06   1.93e-22
  1.0345e+06   1.81e-22
  1.0548e+06   1.69e-22
  1.0756e+06   1.57e-22
  1.0967e+06   1.46e-22
  1.1182e+06   1.36e-22
  1.1402e+06   1.27e-22
  1.1626e+06   1.19e-22
  1.1854e+06   1.12e-22
  1.2087e+06   1.05e-22
  1.2325e+06   9.85e-23
  1.2567e+06   9.20e-23
  1.2814e+06   8.63e-23
  1.3065e+06   8.11e-23
  1.3322e+06   7.60e-23
  1.3584e+06   7.12e-23
  1.3851e+06   6.65e-23
  1.4123e+06   6.19e-23
  1.4400e+06   5.85e-23
