#  E [GeV]   # per interaction  [GeV^{-1}]
  3.0000e+01   7.22e-01
  3.0943e+01   6.93e-01
  3.1916e+01   6.66e-01
  3.2920e+01   6.39e-01
  3.3955e+01   6.13e-01
  3.5023e+01   5.89e-01
  3.6124e+01   5.65e-01
  3.7260e+01   5.42e-01
  3.8432e+01   5.20e-01
  3.9640e+01   4.99e-01
  4.0887e+01   4.79e-01
  4.2172e+01   4.59e-01
  4.3499e+01   4.40e-01
  4.4866e+01   4.22e-01
  4.6277e+01   4.04e-01
  4.7732e+01   3.87e-01
  4.9233e+01   3.71e-01
  5.0781e+01   3.55e-01
  5.2378e+01   3.40e-01
  5.4025e+01   3.26e-01
  5.5724e+01   3.12e-01
  5.7476e+01   2.98e-01
  5.9284e+01   2.86e-01
  6.1148e+01   2.73e-01
  6.3071e+01   2.61e-01
  6.5054e+01   2.50e-01
  6.7100e+01   2.39e-01
  6.9210e+01   2.28e-01
  7.1386e+01   2.18e-01
  7.3631e+01   2.08e-01
  7.5946e+01   1.99e-01
  7.8334e+01   1.90e-01
  8.0797e+01   1.81e-01
  8.3338e+01   1.73e-01
  8.5959e+01   1.65e-01
  8.8662e+01   1.57e-01
  9.1450e+01   1.50e-01
  9.4325e+01   1.43e-01
  9.7291e+01   1.36e-01
  1.0035e+02   1.29e-01
  1.0351e+02   1.23e-01
  1.0676e+02   1.17e-01
  1.1012e+02   1.11e-01
  1.1358e+02   1.06e-01
  1.1715e+02   1.01e-01
  1.2084e+02   9.57e-02
  1.2464e+02   9.09e-02
  1.2856e+02   8.63e-02
  1.3260e+02   8.18e-02
  1.3677e+02   7.76e-02
  1.4107e+02   7.36e-02
  1.4550e+02   6.97e-02
  1.5008e+02   6.61e-02
  1.5480e+02   6.25e-02
  1.5967e+02   5.92e-02
  1.6469e+02   5.60e-02
  1.6987e+02   5.29e-02
  1.7521e+02   5.00e-02
  1.8072e+02   4.72e-02
  1.8640e+02   4.46e-02
  1.9226e+02   4.21e-02
  1.9831e+02   3.97e-02
  2.0454e+02   3.74e-02
  2.1097e+02   3.52e-02
  2.1761e+02   3.31e-02
  2.2445e+02   3.12e-02
  2.3151e+02   2.93e-02
  2.3879e+02   2.75e-02
  2.4630e+02   2.58e-02
  2.5404e+02   2.42e-02
  2.6203e+02   2.27e-02
  2.7027e+02   2.12e-02
  2.7877e+02   1.99e-02
  2.8753e+02   1.86e-02
  2.9657e+02   1.74e-02
  3.0590e+02   1.62e-02
  3.1552e+02   1.51e-02
  3.2544e+02   1.41e-02
  3.3567e+02   1.31e-02
  3.4623e+02   1.22e-02
  3.5712e+02   1.13e-02
  3.6835e+02   1.05e-02
  3.7993e+02   9.71e-03
  3.9188e+02   8.99e-03
  4.0420e+02   8.31e-03
  4.1691e+02   7.67e-03
  4.3002e+02   7.08e-03
  4.4354e+02   6.53e-03
  4.5749e+02   6.01e-03
  4.7187e+02   5.53e-03
  4.8671e+02   5.09e-03
  5.0202e+02   4.67e-03
  5.1780e+02   4.28e-03
  5.3409e+02   3.92e-03
  5.5088e+02   3.59e-03
  5.6820e+02   3.29e-03
  5.8607e+02   3.00e-03
  6.0450e+02   2.74e-03
  6.2351e+02   2.50e-03
  6.4311e+02   2.28e-03
  6.6334e+02   2.07e-03
  6.8419e+02   1.89e-03
  7.0571e+02   1.71e-03
  7.2790e+02   1.55e-03
  7.5079e+02   1.41e-03
  7.7440e+02   1.28e-03
  7.9875e+02   1.16e-03
  8.2387e+02   1.05e-03
  8.4977e+02   9.48e-04
  8.7649e+02   8.58e-04
  9.0405e+02   7.74e-04
  9.3248e+02   6.99e-04
  9.6180e+02   6.32e-04
  9.9205e+02   5.70e-04
  1.0232e+03   5.13e-04
  1.0554e+03   4.62e-04
  1.0886e+03   4.17e-04
  1.1228e+03   3.76e-04
  1.1581e+03   3.37e-04
  1.1946e+03   3.04e-04
  1.2321e+03   2.74e-04
  1.2709e+03   2.46e-04
  1.3108e+03   2.20e-04
  1.3521e+03   1.98e-04
  1.3946e+03   1.78e-04
  1.4384e+03   1.60e-04
  1.4837e+03   1.43e-04
  1.5303e+03   1.28e-04
  1.5784e+03   1.15e-04
  1.6281e+03   1.03e-04
  1.6793e+03   9.20e-05
  1.7321e+03   8.25e-05
  1.7865e+03   7.37e-05
  1.8427e+03   6.55e-05
  1.9006e+03   5.88e-05
  1.9604e+03   5.26e-05
  2.0221e+03   4.68e-05
  2.0856e+03   4.16e-05
  2.1512e+03   3.72e-05
  2.2189e+03   3.32e-05
  2.2886e+03   2.94e-05
  2.3606e+03   2.61e-05
  2.4348e+03   2.33e-05
  2.5114e+03   2.07e-05
  2.5904e+03   1.82e-05
  2.6718e+03   1.62e-05
  2.7558e+03   1.44e-05
  2.8425e+03   1.27e-05
  2.9319e+03   1.11e-05
  3.0241e+03   9.88e-06
  3.1192e+03   8.73e-06
  3.2173e+03   7.66e-06
  3.3184e+03   6.71e-06
  3.4228e+03   5.94e-06
  3.5304e+03   5.22e-06
  3.6414e+03   4.55e-06
  3.7559e+03   4.00e-06
  3.8740e+03   3.53e-06
  3.9958e+03   3.08e-06
  4.1215e+03   2.67e-06
  4.2511e+03   2.35e-06
  4.3848e+03   2.06e-06
  4.5227e+03   1.80e-06
  4.6649e+03   1.56e-06
  4.8116e+03   1.37e-06
  4.9629e+03   1.19e-06
  5.1189e+03   1.03e-06
  5.2799e+03   9.00e-07
  5.4459e+03   7.89e-07
  5.6171e+03   6.88e-07
  5.7938e+03   5.95e-07
  5.9760e+03   5.20e-07
  6.1639e+03   4.55e-07
  6.3577e+03   3.96e-07
  6.5576e+03   3.42e-07
  6.7638e+03   2.99e-07
  6.9765e+03   2.60e-07
  7.1959e+03   2.25e-07
  7.4222e+03   1.94e-07
  7.6556e+03   1.68e-07
  7.8963e+03   1.44e-07
  8.1446e+03   1.23e-07
  8.4007e+03   1.06e-07
  8.6649e+03   9.03e-08
  8.9373e+03   7.66e-08
  9.2184e+03   6.44e-08
  9.5082e+03   5.43e-08
  9.8072e+03   4.53e-08
  1.0116e+04   3.75e-08
  1.0434e+04   3.07e-08
  1.0762e+04   2.50e-08
  1.1100e+04   2.01e-08
  1.1449e+04   1.60e-08
  1.1809e+04   1.25e-08
  1.2181e+04   9.60e-09
  1.2564e+04   7.26e-09
  1.2959e+04   5.39e-09
  1.3366e+04   4.01e-09
  1.3786e+04   2.94e-09
  1.4220e+04   2.11e-09
