#  E [MeV]   Flux [# cm^{-2} s^{-1}  MeV^{-1}]
  3.0000e+04   5.01e-25
  3.1141e+04   4.79e-25
  3.2326e+04   4.58e-25
  3.3556e+04   4.37e-25
  3.4832e+04   4.18e-25
  3.6157e+04   3.99e-25
  3.7533e+04   3.81e-25
  3.8961e+04   3.64e-25
  4.0443e+04   3.47e-25
  4.1982e+04   3.31e-25
  4.3579e+04   3.16e-25
  4.5237e+04   3.01e-25
  4.6958e+04   2.87e-25
  4.8744e+04   2.74e-25
  5.0598e+04   2.61e-25
  5.2523e+04   2.49e-25
  5.4521e+04   2.38e-25
  5.6596e+04   2.27e-25
  5.8749e+04   2.16e-25
  6.0984e+04   2.06e-25
  6.3304e+04   1.96e-25
  6.5712e+04   1.87e-25
  6.8212e+04   1.78e-25
  7.0807e+04   1.69e-25
  7.3500e+04   1.61e-25
  7.6297e+04   1.54e-25
  7.9199e+04   1.46e-25
  8.2212e+04   1.39e-25
  8.5340e+04   1.32e-25
  8.8586e+04   1.26e-25
  9.1956e+04   1.20e-25
  9.5455e+04   1.14e-25
  9.9086e+04   1.09e-25
  1.0286e+05   1.03e-25
  1.0677e+05   9.81e-26
  1.1083e+05   9.33e-26
  1.1505e+05   8.87e-26
  1.1942e+05   8.43e-26
  1.2397e+05   8.01e-26
  1.2868e+05   7.61e-26
  1.3358e+05   7.23e-26
  1.3866e+05   6.87e-26
  1.4394e+05   6.53e-26
  1.4941e+05   6.20e-26
  1.5509e+05   5.89e-26
  1.6100e+05   5.59e-26
  1.6712e+05   5.30e-26
  1.7348e+05   5.03e-26
  1.8008e+05   4.78e-26
  1.8693e+05   4.53e-26
  1.9404e+05   4.30e-26
  2.0142e+05   4.08e-26
  2.0908e+05   3.87e-26
  2.1704e+05   3.67e-26
  2.2529e+05   3.48e-26
  2.3387e+05   3.29e-26
  2.4276e+05   3.12e-26
  2.5200e+05   2.96e-26
  2.6158e+05   2.80e-26
  2.7154e+05   2.65e-26
  2.8187e+05   2.51e-26
  2.9259e+05   2.38e-26
  3.0372e+05   2.25e-26
  3.1527e+05   2.13e-26
  3.2727e+05   2.01e-26
  3.3972e+05   1.90e-26
  3.5264e+05   1.80e-26
  3.6606e+05   1.70e-26
  3.7998e+05   1.60e-26
  3.9444e+05   1.52e-26
  4.0945e+05   1.43e-26
  4.2502e+05   1.35e-26
  4.4119e+05   1.27e-26
  4.5798e+05   1.20e-26
  4.7540e+05   1.13e-26
  4.9348e+05   1.06e-26
  5.1226e+05   1.00e-26
  5.3175e+05   9.42e-27
  5.5198e+05   8.86e-27
  5.7297e+05   8.32e-27
  5.9477e+05   7.81e-27
  6.1740e+05   7.33e-27
  6.4089e+05   6.88e-27
  6.6527e+05   6.44e-27
  6.9058e+05   6.03e-27
  7.1685e+05   5.65e-27
  7.4412e+05   5.29e-27
  7.7243e+05   4.94e-27
  8.0181e+05   4.62e-27
  8.3232e+05   4.32e-27
  8.6398e+05   4.04e-27
  8.9685e+05   3.78e-27
  9.3097e+05   3.53e-27
  9.6638e+05   3.30e-27
  1.0031e+06   3.08e-27
  1.0413e+06   2.87e-27
  1.0809e+06   2.68e-27
  1.1220e+06   2.50e-27
  1.1647e+06   2.33e-27
  1.2090e+06   2.17e-27
  1.2550e+06   2.02e-27
  1.3028e+06   1.88e-27
  1.3523e+06   1.75e-27
  1.4038e+06   1.62e-27
  1.4572e+06   1.51e-27
  1.5126e+06   1.40e-27
  1.5702e+06   1.30e-27
  1.6299e+06   1.20e-27
  1.6919e+06   1.11e-27
  1.7563e+06   1.03e-27
  1.8231e+06   9.54e-28
  1.8925e+06   8.82e-28
  1.9645e+06   8.14e-28
  2.0392e+06   7.52e-28
  2.1168e+06   6.93e-28
  2.1973e+06   6.38e-28
  2.2809e+06   5.88e-28
  2.3677e+06   5.41e-28
  2.4577e+06   4.96e-28
  2.5512e+06   4.56e-28
  2.6483e+06   4.18e-28
  2.7490e+06   3.82e-28
  2.8536e+06   3.49e-28
  2.9622e+06   3.19e-28
  3.0749e+06   2.91e-28
  3.1918e+06   2.65e-28
  3.3133e+06   2.42e-28
  3.4393e+06   2.20e-28
  3.5702e+06   1.99e-28
  3.7060e+06   1.81e-28
  3.8470e+06   1.64e-28
  3.9933e+06   1.48e-28
  4.1452e+06   1.34e-28
  4.3029e+06   1.20e-28
  4.4666e+06   1.08e-28
  4.6366e+06   9.74e-29
  4.8129e+06   8.74e-29
  4.9960e+06   7.80e-29
  5.1861e+06   6.99e-29
  5.3834e+06   6.24e-29
  5.5882e+06   5.53e-29
  5.8008e+06   4.93e-29
  6.0215e+06   4.37e-29
  6.2506e+06   3.85e-29
  6.4883e+06   3.42e-29
  6.7352e+06   3.02e-29
  6.9914e+06   2.64e-29
  7.2574e+06   2.33e-29
  7.5335e+06   2.04e-29
  7.8201e+06   1.78e-29
  8.1176e+06   1.56e-29
  8.4264e+06   1.36e-29
  8.7470e+06   1.17e-29
  9.0797e+06   1.02e-29
  9.4251e+06   8.84e-30
  9.7837e+06   7.58e-30
  1.0156e+07   6.53e-30
  1.0542e+07   5.62e-30
  1.0943e+07   4.78e-30
  1.1360e+07   4.07e-30
  1.1792e+07   3.48e-30
  1.2240e+07   2.94e-30
  1.2706e+07   2.48e-30
  1.3189e+07   2.10e-30
  1.3691e+07   1.76e-30
  1.4212e+07   1.47e-30
  1.4753e+07   1.23e-30
  1.5314e+07   1.02e-30
  1.5897e+07   8.38e-31
  1.6501e+07   6.97e-31
  1.7129e+07   5.71e-31
  1.7781e+07   4.61e-31
  1.8457e+07   3.79e-31
  1.9159e+07   3.06e-31
  1.9888e+07   2.42e-31
  2.0645e+07   1.95e-31
  2.1430e+07   1.55e-31
  2.2245e+07   1.19e-31
  2.3092e+07   9.40e-32
  2.3970e+07   7.24e-32
  2.4882e+07   5.41e-32
  2.5829e+07   4.10e-32
  2.6811e+07   3.02e-32
  2.7831e+07   2.14e-32
  2.8890e+07   1.51e-32
  2.9989e+07   1.03e-32
  3.1130e+07   6.62e-33
  3.2314e+07   4.13e-33
  3.3544e+07   2.42e-33
  3.4820e+07   1.31e-33
  3.6144e+07   6.47e-34
  3.7519e+07   2.85e-34
  3.8947e+07   1.08e-34
  4.0428e+07   3.41e-35
  4.1966e+07   8.51e-36
  4.3563e+07   1.57e-36
  4.5220e+07   1.98e-37
  4.6941e+07   1.53e-38
  4.8726e+07   6.20e-40
  5.0580e+07   1.10e-41
