#  E [MeV]   Flux [# cm^{-2} s^{-1}  MeV^{-1}]
  3.0000e+04   6.58e-23
  3.0696e+04   6.36e-23
  3.1408e+04   6.14e-23
  3.2137e+04   5.93e-23
  3.2883e+04   5.73e-23
  3.3646e+04   5.53e-23
  3.4426e+04   5.34e-23
  3.5225e+04   5.15e-23
  3.6042e+04   4.97e-23
  3.6878e+04   4.79e-23
  3.7734e+04   4.62e-23
  3.8609e+04   4.45e-23
  3.9505e+04   4.29e-23
  4.0422e+04   4.13e-23
  4.1360e+04   3.98e-23
  4.2319e+04   3.83e-23
  4.3301e+04   3.69e-23
  4.4306e+04   3.56e-23
  4.5334e+04   3.42e-23
  4.6386e+04   3.30e-23
  4.7462e+04   3.17e-23
  4.8563e+04   3.06e-23
  4.9690e+04   2.94e-23
  5.0843e+04   2.83e-23
  5.2022e+04   2.73e-23
  5.3229e+04   2.62e-23
  5.4464e+04   2.52e-23
  5.5728e+04   2.43e-23
  5.7021e+04   2.34e-23
  5.8344e+04   2.25e-23
  5.9697e+04   2.16e-23
  6.1083e+04   2.08e-23
  6.2500e+04   2.00e-23
  6.3950e+04   1.92e-23
  6.5434e+04   1.84e-23
  6.6952e+04   1.77e-23
  6.8505e+04   1.70e-23
  7.0095e+04   1.63e-23
  7.1721e+04   1.57e-23
  7.3385e+04   1.50e-23
  7.5088e+04   1.44e-23
  7.6830e+04   1.38e-23
  7.8612e+04   1.32e-23
  8.0436e+04   1.27e-23
  8.2302e+04   1.22e-23
  8.4212e+04   1.16e-23
  8.6166e+04   1.11e-23
  8.8165e+04   1.07e-23
  9.0210e+04   1.02e-23
  9.2304e+04   9.77e-24
  9.4445e+04   9.34e-24
  9.6636e+04   8.93e-24
  9.8878e+04   8.53e-24
  1.0117e+05   8.15e-24
  1.0352e+05   7.79e-24
  1.0592e+05   7.43e-24
  1.0838e+05   7.09e-24
  1.1089e+05   6.77e-24
  1.1347e+05   6.45e-24
  1.1610e+05   6.15e-24
  1.1879e+05   5.86e-24
  1.2155e+05   5.58e-24
  1.2437e+05   5.32e-24
  1.2725e+05   5.06e-24
  1.3021e+05   4.82e-24
  1.3323e+05   4.58e-24
  1.3632e+05   4.35e-24
  1.3948e+05   4.14e-24
  1.4272e+05   3.93e-24
  1.4603e+05   3.73e-24
  1.4942e+05   3.54e-24
  1.5288e+05   3.35e-24
  1.5643e+05   3.18e-24
  1.6006e+05   3.01e-24
  1.6377e+05   2.85e-24
  1.6757e+05   2.70e-24
  1.7146e+05   2.55e-24
  1.7544e+05   2.41e-24
  1.7951e+05   2.28e-24
  1.8368e+05   2.15e-24
  1.8794e+05   2.03e-24
  1.9230e+05   1.91e-24
  1.9676e+05   1.81e-24
  2.0132e+05   1.70e-24
  2.0600e+05   1.60e-24
  2.1078e+05   1.51e-24
  2.1567e+05   1.41e-24
  2.2067e+05   1.33e-24
  2.2579e+05   1.25e-24
  2.3103e+05   1.17e-24
  2.3639e+05   1.10e-24
  2.4187e+05   1.03e-24
  2.4748e+05   9.65e-25
  2.5323e+05   9.03e-25
  2.5910e+05   8.44e-25
  2.6511e+05   7.88e-25
  2.7126e+05   7.35e-25
  2.7756e+05   6.86e-25
  2.8400e+05   6.40e-25
  2.9059e+05   5.96e-25
  2.9733e+05   5.53e-25
  3.0423e+05   5.13e-25
  3.1129e+05   4.78e-25
  3.1851e+05   4.44e-25
  3.2590e+05   4.11e-25
  3.3346e+05   3.80e-25
  3.4120e+05   3.51e-25
  3.4911e+05   3.26e-25
  3.5721e+05   3.01e-25
  3.6550e+05   2.78e-25
  3.7398e+05   2.56e-25
  3.8266e+05   2.35e-25
  3.9154e+05   2.17e-25
  4.0062e+05   2.00e-25
  4.0991e+05   1.84e-25
  4.1943e+05   1.69e-25
  4.2916e+05   1.54e-25
  4.3911e+05   1.42e-25
  4.4930e+05   1.30e-25
  4.5973e+05   1.19e-25
  4.7039e+05   1.09e-25
  4.8131e+05   9.87e-26
  4.9247e+05   9.05e-26
  5.0390e+05   8.27e-26
  5.1559e+05   7.53e-26
  5.2755e+05   6.83e-26
  5.3979e+05   6.18e-26
  5.5232e+05   5.65e-26
  5.6513e+05   5.14e-26
  5.7824e+05   4.65e-26
  5.9166e+05   4.20e-26
  6.0539e+05   3.77e-26
  6.1943e+05   3.43e-26
  6.3381e+05   3.11e-26
  6.4851e+05   2.81e-26
  6.6356e+05   2.52e-26
  6.7895e+05   2.26e-26
  6.9471e+05   2.05e-26
  7.1082e+05   1.85e-26
  7.2732e+05   1.66e-26
  7.4419e+05   1.48e-26
  7.6146e+05   1.32e-26
  7.7912e+05   1.20e-26
  7.9720e+05   1.08e-26
  8.1570e+05   9.65e-27
  8.3462e+05   8.59e-27
  8.5399e+05   7.61e-27
  8.7380e+05   6.87e-27
  8.9407e+05   6.17e-27
  9.1482e+05   5.51e-27
  9.3604e+05   4.89e-27
  9.5776e+05   4.31e-27
  9.7998e+05   3.89e-27
  1.0027e+06   3.49e-27
  1.0260e+06   3.11e-27
  1.0498e+06   2.75e-27
  1.0741e+06   2.42e-27
  1.0991e+06   2.18e-27
  1.1246e+06   1.95e-27
  1.1507e+06   1.73e-27
  1.1774e+06   1.53e-27
  1.2047e+06   1.34e-27
  1.2326e+06   1.20e-27
  1.2612e+06   1.08e-27
  1.2905e+06   9.61e-28
  1.3204e+06   8.49e-28
  1.3511e+06   7.44e-28
  1.3824e+06   6.72e-28
  1.4145e+06   6.04e-28
  1.4473e+06   5.39e-28
  1.4809e+06   4.78e-28
  1.5152e+06   4.21e-28
  1.5504e+06   3.81e-28
  1.5864e+06   3.45e-28
  1.6232e+06   3.10e-28
  1.6608e+06   2.76e-28
  1.6994e+06   2.45e-28
  1.7388e+06   2.24e-28
  1.7791e+06   2.05e-28
  1.8204e+06   1.86e-28
  1.8626e+06   1.69e-28
  1.9059e+06   1.52e-28
  1.9501e+06   1.41e-28
  1.9953e+06   1.30e-28
  2.0416e+06   1.19e-28
  2.0890e+06   1.10e-28
  2.1375e+06   1.00e-28
  2.1870e+06   9.30e-29
  2.2378e+06   8.62e-29
  2.2897e+06   7.98e-29
  2.3428e+06   7.37e-29
  2.3972e+06   6.78e-29
  2.4528e+06   6.27e-29
  2.5097e+06   5.78e-29
  2.5680e+06   5.31e-29
  2.6275e+06   4.87e-29
  2.6885e+06   4.44e-29
  2.7509e+06   4.15e-29
  2.8147e+06   3.89e-29
  2.8800e+06   3.64e-29
