#  E [MeV]   Flux [# cm^{-2} s^{-1}  MeV^{-1}]
  3.0000e+04   4.32e-20
  3.1123e+04   4.13e-20
  3.2288e+04   3.95e-20
  3.3497e+04   3.78e-20
  3.4751e+04   3.61e-20
  3.6051e+04   3.45e-20
  3.7401e+04   3.30e-20
  3.8801e+04   3.15e-20
  4.0253e+04   3.01e-20
  4.1760e+04   2.88e-20
  4.3324e+04   2.75e-20
  4.4945e+04   2.62e-20
  4.6628e+04   2.50e-20
  4.8373e+04   2.39e-20
  5.0184e+04   2.28e-20
  5.2063e+04   2.17e-20
  5.4011e+04   2.07e-20
  5.6033e+04   1.98e-20
  5.8131e+04   1.89e-20
  6.0307e+04   1.80e-20
  6.2564e+04   1.71e-20
  6.4906e+04   1.63e-20
  6.7336e+04   1.56e-20
  6.9857e+04   1.48e-20
  7.2472e+04   1.41e-20
  7.5184e+04   1.34e-20
  7.7999e+04   1.28e-20
  8.0919e+04   1.22e-20
  8.3948e+04   1.16e-20
  8.7090e+04   1.10e-20
  9.0350e+04   1.05e-20
  9.3732e+04   9.96e-21
  9.7241e+04   9.47e-21
  1.0088e+05   9.00e-21
  1.0466e+05   8.55e-21
  1.0858e+05   8.12e-21
  1.1264e+05   7.71e-21
  1.1686e+05   7.32e-21
  1.2123e+05   6.94e-21
  1.2577e+05   6.59e-21
  1.3048e+05   6.25e-21
  1.3536e+05   5.92e-21
  1.4043e+05   5.61e-21
  1.4568e+05   5.31e-21
  1.5114e+05   5.03e-21
  1.5680e+05   4.76e-21
  1.6266e+05   4.50e-21
  1.6875e+05   4.25e-21
  1.7507e+05   4.02e-21
  1.8162e+05   3.79e-21
  1.8842e+05   3.58e-21
  1.9548e+05   3.38e-21
  2.0279e+05   3.19e-21
  2.1039e+05   3.00e-21
  2.1826e+05   2.83e-21
  2.2643e+05   2.66e-21
  2.3491e+05   2.50e-21
  2.4370e+05   2.35e-21
  2.5282e+05   2.20e-21
  2.6229e+05   2.07e-21
  2.7211e+05   1.94e-21
  2.8229e+05   1.81e-21
  2.9286e+05   1.69e-21
  3.0382e+05   1.58e-21
  3.1519e+05   1.48e-21
  3.2699e+05   1.38e-21
  3.3923e+05   1.28e-21
  3.5193e+05   1.19e-21
  3.6511e+05   1.11e-21
  3.7877e+05   1.03e-21
  3.9295e+05   9.56e-22
  4.0766e+05   8.86e-22
  4.2292e+05   8.20e-22
  4.3875e+05   7.59e-22
  4.5518e+05   7.01e-22
  4.7222e+05   6.47e-22
  4.8989e+05   5.96e-22
  5.0823e+05   5.49e-22
  5.2726e+05   5.05e-22
  5.4699e+05   4.65e-22
  5.6747e+05   4.27e-22
  5.8871e+05   3.91e-22
  6.1075e+05   3.59e-22
  6.3361e+05   3.29e-22
  6.5733e+05   3.01e-22
  6.8194e+05   2.76e-22
  7.0746e+05   2.52e-22
  7.3395e+05   2.30e-22
  7.6142e+05   2.10e-22
  7.8992e+05   1.92e-22
  8.1949e+05   1.75e-22
  8.5017e+05   1.60e-22
  8.8199e+05   1.46e-22
  9.1501e+05   1.33e-22
  9.4926e+05   1.21e-22
  9.8479e+05   1.10e-22
  1.0217e+06   1.00e-22
  1.0599e+06   9.14e-23
  1.0996e+06   8.33e-23
  1.1407e+06   7.57e-23
  1.1834e+06   6.89e-23
  1.2277e+06   6.27e-23
  1.2737e+06   5.70e-23
  1.3214e+06   5.18e-23
  1.3708e+06   4.71e-23
  1.4222e+06   4.28e-23
  1.4754e+06   3.89e-23
  1.5306e+06   3.54e-23
  1.5879e+06   3.21e-23
  1.6474e+06   2.91e-23
  1.7090e+06   2.65e-23
  1.7730e+06   2.40e-23
  1.8394e+06   2.18e-23
  1.9082e+06   1.97e-23
  1.9797e+06   1.79e-23
  2.0538e+06   1.62e-23
  2.1306e+06   1.47e-23
  2.2104e+06   1.32e-23
  2.2931e+06   1.19e-23
  2.3790e+06   1.08e-23
  2.4680e+06   9.72e-24
  2.5604e+06   8.74e-24
  2.6563e+06   7.85e-24
  2.7557e+06   7.06e-24
  2.8589e+06   6.33e-24
  2.9659e+06   5.66e-24
  3.0769e+06   5.07e-24
  3.1921e+06   4.52e-24
  3.3116e+06   4.02e-24
  3.4355e+06   3.59e-24
  3.5641e+06   3.18e-24
  3.6976e+06   2.81e-24
  3.8360e+06   2.49e-24
  3.9796e+06   2.20e-24
  4.1285e+06   1.93e-24
  4.2831e+06   1.70e-24
  4.4434e+06   1.49e-24
  4.6097e+06   1.29e-24
  4.7823e+06   1.12e-24
  4.9613e+06   9.77e-25
  5.1470e+06   8.42e-25
  5.3397e+06   7.25e-25
  5.5396e+06   6.24e-25
  5.7470e+06   5.32e-25
  5.9621e+06   4.52e-25
  6.1853e+06   3.85e-25
  6.4168e+06   3.24e-25
  6.6570e+06   2.71e-25
  6.9062e+06   2.28e-25
  7.1647e+06   1.90e-25
  7.4329e+06   1.56e-25
  7.7112e+06   1.29e-25
  7.9998e+06   1.05e-25
  8.2993e+06   8.48e-26
  8.6100e+06   6.87e-26
  8.9323e+06   5.49e-26
  9.2666e+06   4.31e-26
  9.6135e+06   3.40e-26
  9.9734e+06   2.65e-26
  1.0347e+07   2.02e-26
  1.0734e+07   1.54e-26
  1.1136e+07   1.16e-26
  1.1553e+07   8.54e-27
  1.1985e+07   6.24e-27
  1.2434e+07   4.50e-27
  1.2899e+07   3.16e-27
  1.3382e+07   2.18e-27
  1.3883e+07   1.48e-27
  1.4403e+07   9.73e-28
  1.4942e+07   6.22e-28
  1.5501e+07   3.90e-28
  1.6081e+07   2.34e-28
  1.6683e+07   1.35e-28
  1.7308e+07   7.53e-29
  1.7956e+07   3.98e-29
  1.8628e+07   1.97e-29
  1.9325e+07   9.33e-30
  2.0049e+07   4.08e-30
  2.0799e+07   1.62e-30
  2.1578e+07   5.96e-31
  2.2386e+07   1.95e-31
  2.3224e+07   5.55e-32
  2.4093e+07   1.37e-32
  2.4995e+07   2.83e-33
  2.5930e+07   4.75e-34
  2.6901e+07   6.29e-35
  2.7908e+07   6.29e-36
  2.8953e+07   4.47e-37
  3.0037e+07   2.14e-38
  3.1161e+07   6.40e-40
  3.2327e+07   1.08e-41
  3.3537e+07   9.20e-44
  3.4793e+07   3.41e-46
  3.6095e+07   4.63e-49
  3.7446e+07   1.83e-52
  3.8848e+07   1.60e-56
  4.0302e+07   2.14e-61
  4.1811e+07   5.65e-67
  4.3376e+07   5.20e-67
  4.5000e+07   4.77e-67
