#  E [GeV]   # per interaction  [GeV^{-1}]
  3.0000e+01   6.32e-01
  3.1232e+01   6.04e-01
  3.2514e+01   5.78e-01
  3.3849e+01   5.53e-01
  3.5238e+01   5.29e-01
  3.6685e+01   5.05e-01
  3.8191e+01   4.83e-01
  3.9759e+01   4.62e-01
  4.1391e+01   4.42e-01
  4.3090e+01   4.22e-01
  4.4859e+01   4.03e-01
  4.6701e+01   3.86e-01
  4.8618e+01   3.68e-01
  5.0614e+01   3.52e-01
  5.2692e+01   3.36e-01
  5.4855e+01   3.21e-01
  5.7107e+01   3.07e-01
  5.9451e+01   2.93e-01
  6.1892e+01   2.80e-01
  6.4433e+01   2.67e-01
  6.7078e+01   2.55e-01
  6.9832e+01   2.44e-01
  7.2699e+01   2.33e-01
  7.5683e+01   2.22e-01
  7.8790e+01   2.12e-01
  8.2025e+01   2.02e-01
  8.5392e+01   1.93e-01
  8.8898e+01   1.84e-01
  9.2547e+01   1.76e-01
  9.6347e+01   1.67e-01
  1.0030e+02   1.60e-01
  1.0442e+02   1.52e-01
  1.0871e+02   1.45e-01
  1.1317e+02   1.38e-01
  1.1782e+02   1.32e-01
  1.2265e+02   1.25e-01
  1.2769e+02   1.19e-01
  1.3293e+02   1.14e-01
  1.3839e+02   1.08e-01
  1.4407e+02   1.03e-01
  1.4998e+02   9.79e-02
  1.5614e+02   9.31e-02
  1.6255e+02   8.85e-02
  1.6922e+02   8.40e-02
  1.7617e+02   7.98e-02
  1.8340e+02   7.57e-02
  1.9093e+02   7.19e-02
  1.9877e+02   6.81e-02
  2.0693e+02   6.46e-02
  2.1543e+02   6.12e-02
  2.2427e+02   5.79e-02
  2.3348e+02   5.48e-02
  2.4306e+02   5.18e-02
  2.5304e+02   4.90e-02
  2.6343e+02   4.62e-02
  2.7424e+02   4.36e-02
  2.8550e+02   4.11e-02
  2.9722e+02   3.88e-02
  3.0942e+02   3.65e-02
  3.2213e+02   3.43e-02
  3.3535e+02   3.22e-02
  3.4912e+02   3.03e-02
  3.6345e+02   2.84e-02
  3.7837e+02   2.66e-02
  3.9390e+02   2.49e-02
  4.1008e+02   2.33e-02
  4.2691e+02   2.18e-02
  4.4444e+02   2.03e-02
  4.6268e+02   1.89e-02
  4.8168e+02   1.77e-02
  5.0145e+02   1.64e-02
  5.2204e+02   1.53e-02
  5.4347e+02   1.42e-02
  5.6578e+02   1.32e-02
  5.8901e+02   1.22e-02
  6.1319e+02   1.13e-02
  6.3836e+02   1.05e-02
  6.6457e+02   9.73e-03
  6.9185e+02   9.00e-03
  7.2025e+02   8.32e-03
  7.4982e+02   7.69e-03
  7.8061e+02   7.10e-03
  8.1265e+02   6.56e-03
  8.4601e+02   6.06e-03
  8.8075e+02   5.59e-03
  9.1690e+02   5.16e-03
  9.5455e+02   4.76e-03
  9.9373e+02   4.39e-03
  1.0345e+03   4.04e-03
  1.0770e+03   3.73e-03
  1.1212e+03   3.44e-03
  1.1672e+03   3.17e-03
  1.2152e+03   2.92e-03
  1.2650e+03   2.69e-03
  1.3170e+03   2.48e-03
  1.3711e+03   2.29e-03
  1.4273e+03   2.11e-03
  1.4859e+03   1.94e-03
  1.5469e+03   1.79e-03
  1.6104e+03   1.65e-03
  1.6766e+03   1.52e-03
  1.7454e+03   1.41e-03
  1.8170e+03   1.30e-03
  1.8916e+03   1.19e-03
  1.9693e+03   1.10e-03
  2.0501e+03   1.01e-03
  2.1343e+03   9.32e-04
  2.2219e+03   8.58e-04
  2.3131e+03   7.89e-04
  2.4081e+03   7.25e-04
  2.5070e+03   6.66e-04
  2.6099e+03   6.11e-04
  2.7170e+03   5.61e-04
  2.8286e+03   5.14e-04
  2.9447e+03   4.70e-04
  3.0656e+03   4.30e-04
  3.1914e+03   3.93e-04
  3.3225e+03   3.59e-04
  3.4589e+03   3.27e-04
  3.6008e+03   2.98e-04
  3.7487e+03   2.70e-04
  3.9026e+03   2.45e-04
  4.0628e+03   2.22e-04
  4.2296e+03   2.01e-04
  4.4032e+03   1.81e-04
  4.5840e+03   1.63e-04
  4.7722e+03   1.46e-04
  4.9681e+03   1.31e-04
  5.1720e+03   1.17e-04
  5.3844e+03   1.04e-04
  5.6054e+03   9.24e-05
  5.8355e+03   8.17e-05
  6.0751e+03   7.20e-05
  6.3245e+03   6.33e-05
  6.5841e+03   5.54e-05
  6.8544e+03   4.82e-05
  7.1358e+03   4.19e-05
  7.4288e+03   3.61e-05
  7.7338e+03   3.10e-05
  8.0513e+03   2.65e-05
  8.3818e+03   2.24e-05
  8.7259e+03   1.89e-05
  9.0841e+03   1.58e-05
  9.4571e+03   1.30e-05
  9.8453e+03   1.07e-05
  1.0249e+04   8.72e-06
  1.0670e+04   6.99e-06
  1.1108e+04   5.57e-06
  1.1564e+04   4.37e-06
  1.2039e+04   3.37e-06
  1.2533e+04   2.57e-06
  1.3048e+04   1.92e-06
  1.3584e+04   1.41e-06
  1.4141e+04   1.01e-06
  1.4722e+04   7.04e-07
  1.5326e+04   4.78e-07
  1.5955e+04   3.15e-07
  1.6610e+04   2.00e-07
  1.7292e+04   1.22e-07
  1.8002e+04   7.09e-08
  1.8741e+04   3.89e-08
  1.9511e+04   2.02e-08
  2.0312e+04   9.76e-09
  2.1145e+04   4.31e-09
  2.2013e+04   1.75e-09
  2.2917e+04   6.34e-10
  2.3858e+04   2.00e-10
  2.4837e+04   5.48e-11
  2.5857e+04   1.24e-11
  2.6919e+04   2.25e-12
  2.8024e+04   3.19e-13
  2.9174e+04   3.27e-14
  3.0372e+04   2.29e-15
  3.1619e+04   1.02e-16
  3.2917e+04   2.54e-18
  3.4268e+04   3.16e-20
  3.5675e+04   1.65e-22
  3.7140e+04   2.84e-25
  3.8664e+04   1.25e-28
  4.0252e+04   9.47e-33
  4.1904e+04   7.43e-38
  4.3624e+04   3.21e-44
  4.5415e+04   4.24e-47
  4.7280e+04   3.49e-47
  4.9221e+04   2.95e-47
  5.1241e+04   2.47e-47
  5.3345e+04   2.02e-47
  5.5535e+04   1.71e-47
  5.7815e+04   1.42e-47
  6.0188e+04   1.16e-47
  6.2659e+04   9.70e-48
  6.5232e+04   7.94e-48
  6.7910e+04   6.43e-48
  7.0698e+04   5.32e-48
  7.3600e+04   4.29e-48
  7.6621e+04   3.41e-48
  7.9767e+04   2.70e-48
  8.3042e+04   2.04e-48
  8.6451e+04   1.51e-48
  9.0000e+04   1.07e-48
