#  E [MeV]   Flux [# cm^{-2} s^{-1}  MeV^{-1}]
  3.0000e+04   6.22e-26
  3.1051e+04   5.99e-26
  3.2139e+04   5.76e-26
  3.3266e+04   5.55e-26
  3.4432e+04   5.34e-26
  3.5638e+04   5.14e-26
  3.6887e+04   4.95e-26
  3.8180e+04   4.76e-26
  3.9518e+04   4.58e-26
  4.0903e+04   4.41e-26
  4.2336e+04   4.24e-26
  4.3820e+04   4.07e-26
  4.5355e+04   3.92e-26
  4.6945e+04   3.77e-26
  4.8590e+04   3.62e-26
  5.0293e+04   3.48e-26
  5.2055e+04   3.34e-26
  5.3879e+04   3.21e-26
  5.5767e+04   3.08e-26
  5.7722e+04   2.96e-26
  5.9745e+04   2.84e-26
  6.1838e+04   2.73e-26
  6.4005e+04   2.62e-26
  6.6248e+04   2.51e-26
  6.8570e+04   2.41e-26
  7.0973e+04   2.32e-26
  7.3460e+04   2.22e-26
  7.6034e+04   2.13e-26
  7.8699e+04   2.04e-26
  8.1457e+04   1.96e-26
  8.4311e+04   1.88e-26
  8.7266e+04   1.80e-26
  9.0324e+04   1.73e-26
  9.3490e+04   1.66e-26
  9.6766e+04   1.59e-26
  1.0016e+05   1.52e-26
  1.0367e+05   1.46e-26
  1.0730e+05   1.40e-26
  1.1106e+05   1.34e-26
  1.1495e+05   1.29e-26
  1.1898e+05   1.23e-26
  1.2315e+05   1.18e-26
  1.2747e+05   1.13e-26
  1.3193e+05   1.08e-26
  1.3656e+05   1.04e-26
  1.4134e+05   9.95e-27
  1.4629e+05   9.53e-27
  1.5142e+05   9.13e-27
  1.5673e+05   8.75e-27
  1.6222e+05   8.38e-27
  1.6790e+05   8.03e-27
  1.7379e+05   7.70e-27
  1.7988e+05   7.38e-27
  1.8618e+05   7.07e-27
  1.9271e+05   6.77e-27
  1.9946e+05   6.49e-27
  2.0645e+05   6.22e-27
  2.1369e+05   5.96e-27
  2.2117e+05   5.71e-27
  2.2892e+05   5.47e-27
  2.3695e+05   5.24e-27
  2.4525e+05   5.03e-27
  2.5385e+05   4.82e-27
  2.6274e+05   4.62e-27
  2.7195e+05   4.42e-27
  2.8148e+05   4.24e-27
  2.9134e+05   4.06e-27
  3.0155e+05   3.89e-27
  3.1212e+05   3.73e-27
  3.2306e+05   3.57e-27
  3.3438e+05   3.42e-27
  3.4610e+05   3.28e-27
  3.5823e+05   3.15e-27
  3.7078e+05   3.01e-27
  3.8377e+05   2.89e-27
  3.9722e+05   2.77e-27
  4.1114e+05   2.65e-27
  4.2555e+05   2.54e-27
  4.4046e+05   2.44e-27
  4.5590e+05   2.34e-27
  4.7188e+05   2.24e-27
  4.8841e+05   2.14e-27
  5.0553e+05   2.05e-27
  5.2324e+05   1.97e-27
  5.4158e+05   1.89e-27
  5.6056e+05   1.81e-27
  5.8020e+05   1.73e-27
  6.0054e+05   1.66e-27
  6.2158e+05   1.59e-27
  6.4337e+05   1.52e-27
  6.6591e+05   1.46e-27
  6.8925e+05   1.40e-27
  7.1340e+05   1.34e-27
  7.3840e+05   1.29e-27
  7.6428e+05   1.24e-27
  7.9106e+05   1.19e-27
  8.1878e+05   1.14e-27
  8.4748e+05   1.09e-27
  8.7718e+05   1.05e-27
  9.0792e+05   1.01e-27
  9.3973e+05   9.66e-28
  9.7267e+05   9.28e-28
  1.0068e+06   8.92e-28
  1.0420e+06   8.57e-28
  1.0785e+06   8.24e-28
  1.1163e+06   7.93e-28
  1.1555e+06   7.64e-28
  1.1960e+06   7.35e-28
  1.2379e+06   7.08e-28
  1.2813e+06   6.82e-28
  1.3262e+06   6.57e-28
  1.3726e+06   6.34e-28
  1.4207e+06   6.11e-28
  1.4705e+06   5.89e-28
  1.5220e+06   5.68e-28
  1.5754e+06   5.48e-28
  1.6306e+06   5.29e-28
  1.6877e+06   5.11e-28
  1.7469e+06   4.93e-28
  1.8081e+06   4.75e-28
  1.8715e+06   4.59e-28
  1.9370e+06   4.43e-28
  2.0049e+06   4.27e-28
  2.0752e+06   4.12e-28
  2.1479e+06   3.97e-28
  2.2232e+06   3.83e-28
  2.3011e+06   3.69e-28
  2.3817e+06   3.56e-28
  2.4652e+06   3.43e-28
  2.5516e+06   3.30e-28
  2.6410e+06   3.18e-28
  2.7336e+06   3.05e-28
  2.8294e+06   2.94e-28
  2.9285e+06   2.82e-28
  3.0311e+06   2.71e-28
  3.1374e+06   2.59e-28
  3.2473e+06   2.48e-28
  3.3611e+06   2.38e-28
  3.4789e+06   2.27e-28
  3.6008e+06   2.17e-28
  3.7270e+06   2.07e-28
  3.8576e+06   1.97e-28
  3.9928e+06   1.87e-28
  4.1327e+06   1.78e-28
  4.2775e+06   1.69e-28
  4.4274e+06   1.59e-28
  4.5826e+06   1.50e-28
  4.7432e+06   1.42e-28
  4.9094e+06   1.33e-28
  5.0815e+06   1.25e-28
  5.2595e+06   1.17e-28
  5.4438e+06   1.09e-28
  5.6346e+06   1.02e-28
  5.8321e+06   9.45e-29
  6.0365e+06   8.75e-29
  6.2480e+06   8.07e-29
  6.4670e+06   7.42e-29
  6.6936e+06   6.80e-29
  6.9282e+06   6.20e-29
  7.1709e+06   5.63e-29
  7.4222e+06   5.10e-29
  7.6823e+06   4.60e-29
  7.9516e+06   4.12e-29
  8.2302e+06   3.68e-29
  8.5186e+06   3.26e-29
  8.8172e+06   2.87e-29
  9.1262e+06   2.52e-29
  9.4460e+06   2.19e-29
  9.7770e+06   1.89e-29
  1.0120e+07   1.62e-29
  1.0474e+07   1.38e-29
  1.0841e+07   1.16e-29
  1.1221e+07   9.67e-30
  1.1614e+07   7.96e-30
  1.2022e+07   6.47e-30
  1.2443e+07   5.20e-30
  1.2879e+07   4.12e-30
  1.3330e+07   3.21e-30
  1.3797e+07   2.46e-30
  1.4281e+07   1.86e-30
  1.4781e+07   1.37e-30
  1.5299e+07   9.90e-31
  1.5835e+07   7.00e-31
  1.6390e+07   4.81e-31
  1.6965e+07   3.21e-31
  1.7559e+07   2.08e-31
  1.8175e+07   1.30e-31
  1.8812e+07   7.71e-32
  1.9471e+07   4.43e-32
  2.0153e+07   2.42e-32
  2.0859e+07   1.24e-32
  2.1590e+07   5.98e-33
  2.2347e+07   2.72e-33
  2.3130e+07   1.13e-33
  2.3941e+07   4.25e-34
  2.4780e+07   1.48e-34
  2.5648e+07   4.55e-35
  2.6547e+07   1.20e-35
  2.7477e+07   2.77e-36
  2.8440e+07   5.32e-37
