#  E [MeV]   Flux [# cm^{-2} s^{-1}  MeV^{-1}]
  3.0000e+04   2.97e-20
  3.1123e+04   2.85e-20
  3.2288e+04   2.74e-20
  3.3497e+04   2.64e-20
  3.4751e+04   2.54e-20
  3.6051e+04   2.44e-20
  3.7401e+04   2.34e-20
  3.8801e+04   2.25e-20
  4.0253e+04   2.17e-20
  4.1760e+04   2.08e-20
  4.3324e+04   2.00e-20
  4.4945e+04   1.92e-20
  4.6628e+04   1.85e-20
  4.8373e+04   1.78e-20
  5.0184e+04   1.71e-20
  5.2063e+04   1.64e-20
  5.4011e+04   1.57e-20
  5.6033e+04   1.51e-20
  5.8131e+04   1.45e-20
  6.0307e+04   1.39e-20
  6.2564e+04   1.34e-20
  6.4906e+04   1.28e-20
  6.7336e+04   1.23e-20
  6.9857e+04   1.18e-20
  7.2472e+04   1.14e-20
  7.5184e+04   1.09e-20
  7.7999e+04   1.04e-20
  8.0919e+04   1.00e-20
  8.3948e+04   9.61e-21
  8.7090e+04   9.21e-21
  9.0350e+04   8.82e-21
  9.3732e+04   8.46e-21
  9.7241e+04   8.10e-21
  1.0088e+05   7.76e-21
  1.0466e+05   7.43e-21
  1.0858e+05   7.11e-21
  1.1264e+05   6.81e-21
  1.1686e+05   6.51e-21
  1.2123e+05   6.23e-21
  1.2577e+05   5.96e-21
  1.3048e+05   5.70e-21
  1.3536e+05   5.44e-21
  1.4043e+05   5.20e-21
  1.4568e+05   4.97e-21
  1.5114e+05   4.74e-21
  1.5680e+05   4.52e-21
  1.6266e+05   4.31e-21
  1.6875e+05   4.11e-21
  1.7507e+05   3.92e-21
  1.8162e+05   3.73e-21
  1.8842e+05   3.56e-21
  1.9548e+05   3.38e-21
  2.0279e+05   3.22e-21
  2.1039e+05   3.06e-21
  2.1826e+05   2.91e-21
  2.2643e+05   2.76e-21
  2.3491e+05   2.62e-21
  2.4370e+05   2.49e-21
  2.5282e+05   2.36e-21
  2.6229e+05   2.24e-21
  2.7211e+05   2.12e-21
  2.8229e+05   2.01e-21
  2.9286e+05   1.90e-21
  3.0382e+05   1.79e-21
  3.1519e+05   1.69e-21
  3.2699e+05   1.60e-21
  3.3923e+05   1.51e-21
  3.5193e+05   1.42e-21
  3.6511e+05   1.34e-21
  3.7877e+05   1.26e-21
  3.9295e+05   1.18e-21
  4.0766e+05   1.11e-21
  4.2292e+05   1.04e-21
  4.3875e+05   9.79e-22
  4.5518e+05   9.17e-22
  4.7222e+05   8.59e-22
  4.8989e+05   8.04e-22
  5.0823e+05   7.52e-22
  5.2726e+05   7.03e-22
  5.4699e+05   6.57e-22
  5.6747e+05   6.13e-22
  5.8871e+05   5.71e-22
  6.1075e+05   5.32e-22
  6.3361e+05   4.96e-22
  6.5733e+05   4.61e-22
  6.8194e+05   4.29e-22
  7.0746e+05   3.99e-22
  7.3395e+05   3.70e-22
  7.6142e+05   3.44e-22
  7.8992e+05   3.19e-22
  8.1949e+05   2.96e-22
  8.5017e+05   2.75e-22
  8.8199e+05   2.55e-22
  9.1501e+05   2.36e-22
  9.4926e+05   2.18e-22
  9.8479e+05   2.02e-22
  1.0217e+06   1.87e-22
  1.0599e+06   1.73e-22
  1.0996e+06   1.60e-22
  1.1407e+06   1.48e-22
  1.1834e+06   1.36e-22
  1.2277e+06   1.26e-22
  1.2737e+06   1.16e-22
  1.3214e+06   1.07e-22
  1.3708e+06   9.87e-23
  1.4222e+06   9.10e-23
  1.4754e+06   8.38e-23
  1.5306e+06   7.71e-23
  1.5879e+06   7.10e-23
  1.6474e+06   6.53e-23
  1.7090e+06   6.00e-23
  1.7730e+06   5.52e-23
  1.8394e+06   5.07e-23
  1.9082e+06   4.65e-23
  1.9797e+06   4.27e-23
  2.0538e+06   3.91e-23
  2.1306e+06   3.58e-23
  2.2104e+06   3.28e-23
  2.2931e+06   3.00e-23
  2.3790e+06   2.74e-23
  2.4680e+06   2.50e-23
  2.5604e+06   2.28e-23
  2.6563e+06   2.08e-23
  2.7557e+06   1.89e-23
  2.8589e+06   1.72e-23
  2.9659e+06   1.56e-23
  3.0769e+06   1.42e-23
  3.1921e+06   1.29e-23
  3.3116e+06   1.17e-23
  3.4355e+06   1.05e-23
  3.5641e+06   9.53e-24
  3.6976e+06   8.60e-24
  3.8360e+06   7.73e-24
  3.9796e+06   6.97e-24
  4.1285e+06   6.26e-24
  4.2831e+06   5.60e-24
  4.4434e+06   5.02e-24
  4.6097e+06   4.49e-24
  4.7823e+06   4.00e-24
  4.9613e+06   3.56e-24
  5.1470e+06   3.17e-24
  5.3397e+06   2.81e-24
  5.5396e+06   2.49e-24
  5.7470e+06   2.20e-24
  5.9621e+06   1.94e-24
  6.1853e+06   1.70e-24
  6.4168e+06   1.50e-24
  6.6570e+06   1.31e-24
  6.9062e+06   1.14e-24
  7.1647e+06   9.96e-25
  7.4329e+06   8.64e-25
  7.7112e+06   7.44e-25
  7.9998e+06   6.45e-25
  8.2993e+06   5.54e-25
  8.6100e+06   4.72e-25
  8.9323e+06   4.04e-25
  9.2666e+06   3.44e-25
  9.6135e+06   2.88e-25
  9.9734e+06   2.44e-25
  1.0347e+07   2.04e-25
  1.0734e+07   1.69e-25
  1.1136e+07   1.40e-25
  1.1553e+07   1.16e-25
  1.1985e+07   9.39e-26
  1.2434e+07   7.61e-26
  1.2899e+07   6.13e-26
  1.3382e+07   4.86e-26
  1.3883e+07   3.82e-26
  1.4403e+07   2.99e-26
  1.4942e+07   2.30e-26
  1.5501e+07   1.74e-26
  1.6081e+07   1.31e-26
  1.6683e+07   9.59e-27
  1.7308e+07   6.87e-27
  1.7956e+07   4.89e-27
  1.8628e+07   3.36e-27
  1.9325e+07   2.23e-27
  2.0049e+07   1.46e-27
  2.0799e+07   9.15e-28
  2.1578e+07   5.43e-28
  2.2386e+07   3.15e-28
  2.3224e+07   1.71e-28
  2.4093e+07   8.65e-29
  2.4995e+07   4.14e-29
  2.5930e+07   1.82e-29
  2.6901e+07   7.11e-30
  2.7908e+07   2.51e-30
  2.8953e+07   7.73e-31
  3.0037e+07   1.99e-31
  3.1161e+07   4.21e-32
  3.2327e+07   7.05e-33
  3.3537e+07   8.68e-34
  3.4793e+07   7.48e-35
  3.6095e+07   4.18e-36
  3.7446e+07   1.34e-37
  3.8848e+07   2.15e-39
  4.0302e+07   1.48e-41
  4.1811e+07   3.41e-44
  4.3376e+07   1.98e-47
  4.5000e+07   1.99e-51
