#  E [GeV]   # per interaction  [GeV^{-1}]
  3.0000e+01   3.01e-02
  3.1232e+01   2.90e-02
  3.2514e+01   2.78e-02
  3.3849e+01   2.67e-02
  3.5238e+01   2.57e-02
  3.6685e+01   2.47e-02
  3.8191e+01   2.37e-02
  3.9759e+01   2.28e-02
  4.1391e+01   2.18e-02
  4.3090e+01   2.10e-02
  4.4859e+01   2.01e-02
  4.6701e+01   1.93e-02
  4.8618e+01   1.85e-02
  5.0614e+01   1.77e-02
  5.2692e+01   1.70e-02
  5.4855e+01   1.63e-02
  5.7107e+01   1.56e-02
  5.9451e+01   1.49e-02
  6.1892e+01   1.43e-02
  6.4433e+01   1.37e-02
  6.7078e+01   1.31e-02
  6.9832e+01   1.26e-02
  7.2699e+01   1.20e-02
  7.5683e+01   1.15e-02
  7.8790e+01   1.10e-02
  8.2025e+01   1.05e-02
  8.5392e+01   1.00e-02
  8.8898e+01   9.57e-03
  9.2547e+01   9.14e-03
  9.6347e+01   8.73e-03
  1.0030e+02   8.33e-03
  1.0442e+02   7.95e-03
  1.0871e+02   7.58e-03
  1.1317e+02   7.22e-03
  1.1782e+02   6.89e-03
  1.2265e+02   6.56e-03
  1.2769e+02   6.25e-03
  1.3293e+02   5.95e-03
  1.3839e+02   5.66e-03
  1.4407e+02   5.38e-03
  1.4998e+02   5.12e-03
  1.5614e+02   4.87e-03
  1.6255e+02   4.62e-03
  1.6922e+02   4.39e-03
  1.7617e+02   4.17e-03
  1.8340e+02   3.95e-03
  1.9093e+02   3.75e-03
  1.9877e+02   3.55e-03
  2.0693e+02   3.36e-03
  2.1543e+02   3.18e-03
  2.2427e+02   3.01e-03
  2.3348e+02   2.85e-03
  2.4306e+02   2.69e-03
  2.5304e+02   2.54e-03
  2.6343e+02   2.40e-03
  2.7424e+02   2.26e-03
  2.8550e+02   2.13e-03
  2.9722e+02   2.01e-03
  3.0942e+02   1.89e-03
  3.2213e+02   1.78e-03
  3.3535e+02   1.67e-03
  3.4912e+02   1.57e-03
  3.6345e+02   1.48e-03
  3.7837e+02   1.38e-03
  3.9390e+02   1.30e-03
  4.1008e+02   1.21e-03
  4.2691e+02   1.14e-03
  4.4444e+02   1.06e-03
  4.6268e+02   9.94e-04
  4.8168e+02   9.28e-04
  5.0145e+02   8.66e-04
  5.2204e+02   8.08e-04
  5.4347e+02   7.53e-04
  5.6578e+02   7.01e-04
  5.8901e+02   6.53e-04
  6.1319e+02   6.07e-04
  6.3836e+02   5.65e-04
  6.6457e+02   5.25e-04
  6.9185e+02   4.88e-04
  7.2025e+02   4.53e-04
  7.4982e+02   4.20e-04
  7.8061e+02   3.90e-04
  8.1265e+02   3.62e-04
  8.4601e+02   3.36e-04
  8.8075e+02   3.12e-04
  9.1690e+02   2.89e-04
  9.5455e+02   2.68e-04
  9.9373e+02   2.49e-04
  1.0345e+03   2.31e-04
  1.0770e+03   2.14e-04
  1.1212e+03   1.99e-04
  1.1672e+03   1.84e-04
  1.2152e+03   1.71e-04
  1.2650e+03   1.59e-04
  1.3170e+03   1.47e-04
  1.3711e+03   1.37e-04
  1.4273e+03   1.27e-04
  1.4859e+03   1.18e-04
  1.5469e+03   1.10e-04
  1.6104e+03   1.02e-04
  1.6766e+03   9.48e-05
  1.7454e+03   8.82e-05
  1.8170e+03   8.21e-05
  1.8916e+03   7.63e-05
  1.9693e+03   7.10e-05
  2.0501e+03   6.61e-05
  2.1343e+03   6.15e-05
  2.2219e+03   5.73e-05
  2.3131e+03   5.33e-05
  2.4081e+03   4.96e-05
  2.5070e+03   4.62e-05
  2.6099e+03   4.30e-05
  2.7170e+03   4.00e-05
  2.8286e+03   3.73e-05
  2.9447e+03   3.47e-05
  3.0656e+03   3.23e-05
  3.1914e+03   3.01e-05
  3.3225e+03   2.80e-05
  3.4589e+03   2.60e-05
  3.6008e+03   2.42e-05
  3.7487e+03   2.25e-05
  3.9026e+03   2.09e-05
  4.0628e+03   1.94e-05
  4.2296e+03   1.80e-05
  4.4032e+03   1.67e-05
  4.5840e+03   1.55e-05
  4.7722e+03   1.44e-05
  4.9681e+03   1.33e-05
  5.1720e+03   1.23e-05
  5.3844e+03   1.14e-05
  5.6054e+03   1.05e-05
  5.8355e+03   9.68e-06
  6.0751e+03   8.90e-06
  6.3245e+03   8.19e-06
  6.5841e+03   7.51e-06
  6.8544e+03   6.87e-06
  7.1358e+03   6.28e-06
  7.4288e+03   5.72e-06
  7.7338e+03   5.20e-06
  8.0513e+03   4.72e-06
  8.3818e+03   4.26e-06
  8.7259e+03   3.84e-06
  9.0841e+03   3.44e-06
  9.4571e+03   3.07e-06
  9.8453e+03   2.73e-06
  1.0249e+04   2.41e-06
  1.0670e+04   2.12e-06
  1.1108e+04   1.85e-06
  1.1564e+04   1.60e-06
  1.2039e+04   1.37e-06
  1.2533e+04   1.16e-06
  1.3048e+04   9.78e-07
  1.3584e+04   8.11e-07
  1.4141e+04   6.63e-07
  1.4722e+04   5.34e-07
  1.5326e+04   4.22e-07
  1.5955e+04   3.27e-07
  1.6610e+04   2.47e-07
  1.7292e+04   1.82e-07
  1.8002e+04   1.30e-07
  1.8741e+04   8.96e-08
  1.9511e+04   5.93e-08
  2.0312e+04   3.74e-08
  2.1145e+04   2.23e-08
  2.2013e+04   1.25e-08
  2.2917e+04   6.48e-09
  2.3858e+04   3.07e-09
  2.4837e+04   1.31e-09
  2.5857e+04   4.92e-10
  2.6919e+04   1.59e-10
  2.8024e+04   4.29e-11
  2.9174e+04   9.31e-12
  3.0372e+04   1.55e-12
  3.1619e+04   1.85e-13
  3.2917e+04   1.48e-14
  3.4268e+04   7.21e-16
  3.5675e+04   1.88e-17
  3.7140e+04   2.23e-19
  3.8664e+04   9.81e-22
  4.0252e+04   1.20e-24
  4.1904e+04   2.86e-28
  4.3624e+04   8.00e-33
  4.5415e+04   1.34e-38
  4.7280e+04   5.38e-46
  4.9221e+04   1.30e-46
  5.1241e+04   1.23e-46
  5.3345e+04   1.16e-46
  5.5535e+04   1.10e-46
  5.7815e+04   1.04e-46
  6.0188e+04   9.78e-47
  6.2659e+04   9.21e-47
  6.5232e+04   8.68e-47
  6.7910e+04   8.17e-47
  7.0698e+04   7.69e-47
  7.3600e+04   7.23e-47
  7.6621e+04   6.79e-47
  7.9767e+04   6.36e-47
  8.3042e+04   5.95e-47
  8.6451e+04   5.58e-47
  9.0000e+04   5.25e-47
