#  E [MeV]   Flux [# cm^{-2} s^{-1}  MeV^{-1}]
  3.0000e+04   3.74e-20
  3.1123e+04   3.58e-20
  3.2288e+04   3.42e-20
  3.3497e+04   3.27e-20
  3.4751e+04   3.12e-20
  3.6051e+04   2.98e-20
  3.7401e+04   2.85e-20
  3.8801e+04   2.72e-20
  4.0253e+04   2.59e-20
  4.1760e+04   2.48e-20
  4.3324e+04   2.36e-20
  4.4945e+04   2.25e-20
  4.6628e+04   2.15e-20
  4.8373e+04   2.05e-20
  5.0184e+04   1.96e-20
  5.2063e+04   1.87e-20
  5.4011e+04   1.78e-20
  5.6033e+04   1.70e-20
  5.8131e+04   1.62e-20
  6.0307e+04   1.54e-20
  6.2564e+04   1.47e-20
  6.4906e+04   1.40e-20
  6.7336e+04   1.33e-20
  6.9857e+04   1.27e-20
  7.2472e+04   1.21e-20
  7.5184e+04   1.15e-20
  7.7999e+04   1.09e-20
  8.0919e+04   1.04e-20
  8.3948e+04   9.90e-21
  8.7090e+04   9.42e-21
  9.0350e+04   8.96e-21
  9.3732e+04   8.52e-21
  9.7241e+04   8.10e-21
  1.0088e+05   7.70e-21
  1.0466e+05   7.32e-21
  1.0858e+05   6.95e-21
  1.1264e+05   6.61e-21
  1.1686e+05   6.27e-21
  1.2123e+05   5.96e-21
  1.2577e+05   5.66e-21
  1.3048e+05   5.37e-21
  1.3536e+05   5.09e-21
  1.4043e+05   4.83e-21
  1.4568e+05   4.58e-21
  1.5114e+05   4.34e-21
  1.5680e+05   4.12e-21
  1.6266e+05   3.90e-21
  1.6875e+05   3.69e-21
  1.7507e+05   3.50e-21
  1.8162e+05   3.31e-21
  1.8842e+05   3.13e-21
  1.9548e+05   2.96e-21
  2.0279e+05   2.80e-21
  2.1039e+05   2.64e-21
  2.1826e+05   2.50e-21
  2.2643e+05   2.36e-21
  2.3491e+05   2.22e-21
  2.4370e+05   2.09e-21
  2.5282e+05   1.97e-21
  2.6229e+05   1.86e-21
  2.7211e+05   1.75e-21
  2.8229e+05   1.64e-21
  2.9286e+05   1.54e-21
  3.0382e+05   1.45e-21
  3.1519e+05   1.36e-21
  3.2699e+05   1.28e-21
  3.3923e+05   1.19e-21
  3.5193e+05   1.12e-21
  3.6511e+05   1.05e-21
  3.7877e+05   9.76e-22
  3.9295e+05   9.11e-22
  4.0766e+05   8.49e-22
  4.2292e+05   7.91e-22
  4.3875e+05   7.36e-22
  4.5518e+05   6.84e-22
  4.7222e+05   6.35e-22
  4.8989e+05   5.89e-22
  5.0823e+05   5.46e-22
  5.2726e+05   5.06e-22
  5.4699e+05   4.67e-22
  5.6747e+05   4.32e-22
  5.8871e+05   3.98e-22
  6.1075e+05   3.67e-22
  6.3361e+05   3.39e-22
  6.5733e+05   3.12e-22
  6.8194e+05   2.87e-22
  7.0746e+05   2.64e-22
  7.3395e+05   2.43e-22
  7.6142e+05   2.24e-22
  7.8992e+05   2.06e-22
  8.1949e+05   1.89e-22
  8.5017e+05   1.74e-22
  8.8199e+05   1.60e-22
  9.1501e+05   1.47e-22
  9.4926e+05   1.35e-22
  9.8479e+05   1.24e-22
  1.0217e+06   1.14e-22
  1.0599e+06   1.04e-22
  1.0996e+06   9.56e-23
  1.1407e+06   8.76e-23
  1.1834e+06   8.03e-23
  1.2277e+06   7.36e-23
  1.2737e+06   6.75e-23
  1.3214e+06   6.18e-23
  1.3708e+06   5.67e-23
  1.4222e+06   5.19e-23
  1.4754e+06   4.75e-23
  1.5306e+06   4.35e-23
  1.5879e+06   3.98e-23
  1.6474e+06   3.64e-23
  1.7090e+06   3.33e-23
  1.7730e+06   3.05e-23
  1.8394e+06   2.78e-23
  1.9082e+06   2.54e-23
  1.9797e+06   2.32e-23
  2.0538e+06   2.12e-23
  2.1306e+06   1.93e-23
  2.2104e+06   1.76e-23
  2.2931e+06   1.60e-23
  2.3790e+06   1.45e-23
  2.4680e+06   1.32e-23
  2.5604e+06   1.19e-23
  2.6563e+06   1.08e-23
  2.7557e+06   9.76e-24
  2.8589e+06   8.81e-24
  2.9659e+06   7.92e-24
  3.0769e+06   7.14e-24
  3.1921e+06   6.42e-24
  3.3116e+06   5.74e-24
  3.4355e+06   5.15e-24
  3.5641e+06   4.60e-24
  3.6976e+06   4.09e-24
  3.8360e+06   3.65e-24
  3.9796e+06   3.24e-24
  4.1285e+06   2.86e-24
  4.2831e+06   2.53e-24
  4.4434e+06   2.23e-24
  4.6097e+06   1.95e-24
  4.7823e+06   1.70e-24
  4.9613e+06   1.49e-24
  5.1470e+06   1.29e-24
  5.3397e+06   1.11e-24
  5.5396e+06   9.65e-25
  5.7470e+06   8.28e-25
  5.9621e+06   7.06e-25
  6.1853e+06   6.05e-25
  6.4168e+06   5.13e-25
  6.6570e+06   4.30e-25
  6.9062e+06   3.64e-25
  7.1647e+06   3.05e-25
  7.4329e+06   2.51e-25
  7.7112e+06   2.09e-25
  7.9998e+06   1.72e-25
  8.2993e+06   1.39e-25
  8.6100e+06   1.13e-25
  8.9323e+06   9.13e-26
  9.2666e+06   7.23e-26
  9.6135e+06   5.72e-26
  9.9734e+06   4.50e-26
  1.0347e+07   3.47e-26
  1.0734e+07   2.66e-26
  1.1136e+07   2.03e-26
  1.1553e+07   1.51e-26
  1.1985e+07   1.11e-26
  1.2434e+07   8.13e-27
  1.2899e+07   5.79e-27
  1.3382e+07   4.03e-27
  1.3883e+07   2.80e-27
  1.4403e+07   1.88e-27
  1.4942e+07   1.22e-27
  1.5501e+07   7.92e-28
  1.6081e+07   4.92e-28
  1.6683e+07   2.91e-28
  1.7308e+07   1.71e-28
  1.7956e+07   9.48e-29
  1.8628e+07   4.94e-29
  1.9325e+07   2.50e-29
  2.0049e+07   1.18e-29
  2.0799e+07   5.15e-30
  2.1578e+07   2.10e-30
  2.2386e+07   7.85e-31
  2.3224e+07   2.59e-31
  2.4093e+07   7.62e-32
  2.4995e+07   1.95e-32
  2.5930e+07   4.15e-33
  2.6901e+07   7.26e-34
  2.7908e+07   1.01e-34
  2.8953e+07   1.05e-35
  3.0037e+07   7.82e-37
  3.1161e+07   3.91e-38
  3.2327e+07   1.19e-39
  3.3537e+07   2.01e-41
  3.4793e+07   1.67e-43
  3.6095e+07   5.75e-46
  3.7446e+07   6.74e-49
  3.8848e+07   2.08e-52
  4.0302e+07   1.23e-56
  4.1811e+07   9.15e-62
  4.3376e+07   1.90e-67
  4.5000e+07   1.68e-67
