#  E [GeV]   # per interaction  [GeV^{-1}]
  3.0000e+01   1.37e+00
  3.1232e+01   1.31e+00
  3.2514e+01   1.25e+00
  3.3849e+01   1.19e+00
  3.5238e+01   1.14e+00
  3.6685e+01   1.08e+00
  3.8191e+01   1.03e+00
  3.9759e+01   9.85e-01
  4.1391e+01   9.38e-01
  4.3090e+01   8.94e-01
  4.4859e+01   8.51e-01
  4.6701e+01   8.11e-01
  4.8618e+01   7.72e-01
  5.0614e+01   7.35e-01
  5.2692e+01   6.99e-01
  5.4855e+01   6.66e-01
  5.7107e+01   6.33e-01
  5.9451e+01   6.02e-01
  6.1892e+01   5.73e-01
  6.4433e+01   5.45e-01
  6.7078e+01   5.18e-01
  6.9832e+01   4.92e-01
  7.2699e+01   4.68e-01
  7.5683e+01   4.44e-01
  7.8790e+01   4.22e-01
  8.2025e+01   4.01e-01
  8.5392e+01   3.81e-01
  8.8898e+01   3.61e-01
  9.2547e+01   3.43e-01
  9.6347e+01   3.25e-01
  1.0030e+02   3.09e-01
  1.0442e+02   2.93e-01
  1.0871e+02   2.78e-01
  1.1317e+02   2.63e-01
  1.1782e+02   2.49e-01
  1.2265e+02   2.36e-01
  1.2769e+02   2.24e-01
  1.3293e+02   2.12e-01
  1.3839e+02   2.01e-01
  1.4407e+02   1.90e-01
  1.4998e+02   1.80e-01
  1.5614e+02   1.70e-01
  1.6255e+02   1.61e-01
  1.6922e+02   1.52e-01
  1.7617e+02   1.43e-01
  1.8340e+02   1.35e-01
  1.9093e+02   1.28e-01
  1.9877e+02   1.21e-01
  2.0693e+02   1.14e-01
  2.1543e+02   1.07e-01
  2.2427e+02   1.01e-01
  2.3348e+02   9.51e-02
  2.4306e+02   8.95e-02
  2.5304e+02   8.42e-02
  2.6343e+02   7.92e-02
  2.7424e+02   7.44e-02
  2.8550e+02   6.99e-02
  2.9722e+02   6.56e-02
  3.0942e+02   6.15e-02
  3.2213e+02   5.77e-02
  3.3535e+02   5.40e-02
  3.4912e+02   5.06e-02
  3.6345e+02   4.73e-02
  3.7837e+02   4.42e-02
  3.9390e+02   4.13e-02
  4.1008e+02   3.85e-02
  4.2691e+02   3.59e-02
  4.4444e+02   3.35e-02
  4.6268e+02   3.12e-02
  4.8168e+02   2.90e-02
  5.0145e+02   2.70e-02
  5.2204e+02   2.51e-02
  5.4347e+02   2.33e-02
  5.6578e+02   2.16e-02
  5.8901e+02   2.00e-02
  6.1319e+02   1.85e-02
  6.3836e+02   1.71e-02
  6.6457e+02   1.59e-02
  6.9185e+02   1.47e-02
  7.2025e+02   1.35e-02
  7.4982e+02   1.25e-02
  7.8061e+02   1.15e-02
  8.1265e+02   1.06e-02
  8.4601e+02   9.82e-03
  8.8075e+02   9.05e-03
  9.1690e+02   8.34e-03
  9.5455e+02   7.68e-03
  9.9373e+02   7.08e-03
  1.0345e+03   6.52e-03
  1.0770e+03   6.00e-03
  1.1212e+03   5.52e-03
  1.1672e+03   5.08e-03
  1.2152e+03   4.67e-03
  1.2650e+03   4.30e-03
  1.3170e+03   3.96e-03
  1.3711e+03   3.64e-03
  1.4273e+03   3.35e-03
  1.4859e+03   3.08e-03
  1.5469e+03   2.83e-03
  1.6104e+03   2.60e-03
  1.6766e+03   2.39e-03
  1.7454e+03   2.19e-03
  1.8170e+03   2.01e-03
  1.8916e+03   1.85e-03
  1.9693e+03   1.69e-03
  2.0501e+03   1.55e-03
  2.1343e+03   1.42e-03
  2.2219e+03   1.30e-03
  2.3131e+03   1.19e-03
  2.4081e+03   1.09e-03
  2.5070e+03   9.94e-04
  2.6099e+03   9.07e-04
  2.7170e+03   8.26e-04
  2.8286e+03   7.53e-04
  2.9447e+03   6.85e-04
  3.0656e+03   6.22e-04
  3.1914e+03   5.65e-04
  3.3225e+03   5.11e-04
  3.4589e+03   4.63e-04
  3.6008e+03   4.18e-04
  3.7487e+03   3.77e-04
  3.9026e+03   3.40e-04
  4.0628e+03   3.06e-04
  4.2296e+03   2.74e-04
  4.4032e+03   2.45e-04
  4.5840e+03   2.19e-04
  4.7722e+03   1.95e-04
  4.9681e+03   1.73e-04
  5.1720e+03   1.54e-04
  5.3844e+03   1.36e-04
  5.6054e+03   1.20e-04
  5.8355e+03   1.05e-04
  6.0751e+03   9.22e-05
  6.3245e+03   8.08e-05
  6.5841e+03   7.03e-05
  6.8544e+03   6.08e-05
  7.1358e+03   5.27e-05
  7.4288e+03   4.53e-05
  7.7338e+03   3.88e-05
  8.0513e+03   3.32e-05
  8.3818e+03   2.81e-05
  8.7259e+03   2.37e-05
  9.0841e+03   1.99e-05
  9.4571e+03   1.65e-05
  9.8453e+03   1.37e-05
  1.0249e+04   1.12e-05
  1.0670e+04   9.12e-06
  1.1108e+04   7.38e-06
  1.1564e+04   5.91e-06
  1.2039e+04   4.65e-06
  1.2533e+04   3.66e-06
  1.3048e+04   2.82e-06
  1.3584e+04   2.14e-06
  1.4141e+04   1.61e-06
  1.4722e+04   1.19e-06
  1.5326e+04   8.51e-07
  1.5955e+04   6.04e-07
  1.6610e+04   4.15e-07
  1.7292e+04   2.76e-07
  1.8002e+04   1.80e-07
  1.8741e+04   1.12e-07
  1.9511e+04   6.66e-08
  2.0312e+04   3.81e-08
  2.1145e+04   2.04e-08
  2.2013e+04   1.03e-08
  2.2917e+04   4.79e-09
  2.3858e+04   2.02e-09
  2.4837e+04   7.73e-10
  2.5857e+04   2.60e-10
  2.6919e+04   7.41e-11
  2.8024e+04   1.78e-11
  2.9174e+04   3.41e-12
  3.0372e+04   4.90e-13
  3.1619e+04   5.16e-14
  3.2917e+04   3.57e-15
  3.4268e+04   1.47e-16
  3.5675e+04   3.27e-18
  3.7140e+04   3.23e-20
  3.8664e+04   1.15e-22
  4.0252e+04   1.12e-25
  4.1904e+04   2.01e-29
  4.3624e+04   4.03e-34
  4.5415e+04   4.56e-40
  4.7280e+04   3.26e-47
  4.9221e+04   2.95e-47
  5.1241e+04   2.68e-47
  5.3345e+04   2.43e-47
  5.5535e+04   2.22e-47
  5.7815e+04   2.02e-47
  6.0188e+04   1.84e-47
  6.2659e+04   1.69e-47
  6.5232e+04   1.55e-47
  6.7910e+04   1.41e-47
  7.0698e+04   1.29e-47
  7.3600e+04   1.17e-47
  7.6621e+04   1.06e-47
  7.9767e+04   9.49e-48
  8.3042e+04   8.47e-48
  8.6451e+04   7.56e-48
  9.0000e+04   6.87e-48
