#  E [MeV]   Flux [# cm^{-2} s^{-1}  MeV^{-1}]
  3.0000e+04   1.40e-20
  3.1033e+04   1.35e-20
  3.2102e+04   1.30e-20
  3.3207e+04   1.26e-20
  3.4350e+04   1.21e-20
  3.5533e+04   1.17e-20
  3.6757e+04   1.13e-20
  3.8022e+04   1.08e-20
  3.9332e+04   1.04e-20
  4.0686e+04   1.01e-20
  4.2087e+04   9.69e-21
  4.3536e+04   9.33e-21
  4.5035e+04   8.99e-21
  4.6586e+04   8.65e-21
  4.8190e+04   8.33e-21
  4.9850e+04   8.02e-21
  5.1566e+04   7.71e-21
  5.3342e+04   7.42e-21
  5.5178e+04   7.14e-21
  5.7078e+04   6.86e-21
  5.9044e+04   6.60e-21
  6.1077e+04   6.35e-21
  6.3180e+04   6.10e-21
  6.5356e+04   5.86e-21
  6.7606e+04   5.63e-21
  6.9934e+04   5.41e-21
  7.2342e+04   5.20e-21
  7.4833e+04   4.99e-21
  7.7410e+04   4.79e-21
  8.0075e+04   4.60e-21
  8.2833e+04   4.41e-21
  8.5685e+04   4.23e-21
  8.8635e+04   4.06e-21
  9.1687e+04   3.89e-21
  9.4844e+04   3.73e-21
  9.8110e+04   3.57e-21
  1.0149e+05   3.42e-21
  1.0498e+05   3.27e-21
  1.0860e+05   3.13e-21
  1.1234e+05   3.00e-21
  1.1621e+05   2.87e-21
  1.2021e+05   2.74e-21
  1.2435e+05   2.62e-21
  1.2863e+05   2.50e-21
  1.3306e+05   2.39e-21
  1.3764e+05   2.28e-21
  1.4238e+05   2.18e-21
  1.4728e+05   2.08e-21
  1.5235e+05   1.98e-21
  1.5760e+05   1.89e-21
  1.6302e+05   1.80e-21
  1.6864e+05   1.71e-21
  1.7445e+05   1.63e-21
  1.8045e+05   1.55e-21
  1.8667e+05   1.48e-21
  1.9309e+05   1.40e-21
  1.9974e+05   1.33e-21
  2.0662e+05   1.26e-21
  2.1373e+05   1.20e-21
  2.2109e+05   1.14e-21
  2.2871e+05   1.08e-21
  2.3658e+05   1.02e-21
  2.4473e+05   9.65e-22
  2.5316e+05   9.13e-22
  2.6187e+05   8.63e-22
  2.7089e+05   8.15e-22
  2.8022e+05   7.69e-22
  2.8987e+05   7.25e-22
  2.9985e+05   6.83e-22
  3.1017e+05   6.43e-22
  3.2085e+05   6.05e-22
  3.3190e+05   5.69e-22
  3.4333e+05   5.35e-22
  3.5515e+05   5.02e-22
  3.6738e+05   4.71e-22
  3.8003e+05   4.41e-22
  3.9312e+05   4.13e-22
  4.0665e+05   3.87e-22
  4.2066e+05   3.62e-22
  4.3514e+05   3.38e-22
  4.5013e+05   3.16e-22
  4.6562e+05   2.94e-22
  4.8166e+05   2.74e-22
  4.9824e+05   2.56e-22
  5.1540e+05   2.38e-22
  5.3315e+05   2.21e-22
  5.5150e+05   2.06e-22
  5.7050e+05   1.91e-22
  5.9014e+05   1.77e-22
  6.1046e+05   1.65e-22
  6.3148e+05   1.53e-22
  6.5322e+05   1.41e-22
  6.7572e+05   1.31e-22
  6.9898e+05   1.21e-22
  7.2305e+05   1.12e-22
  7.4795e+05   1.03e-22
  7.7371e+05   9.55e-23
  8.0035e+05   8.82e-23
  8.2791e+05   8.14e-23
  8.5641e+05   7.51e-23
  8.8590e+05   6.92e-23
  9.1641e+05   6.38e-23
  9.4796e+05   5.88e-23
  9.8061e+05   5.42e-23
  1.0144e+06   4.99e-23
  1.0493e+06   4.59e-23
  1.0854e+06   4.23e-23
  1.1228e+06   3.90e-23
  1.1615e+06   3.58e-23
  1.2015e+06   3.30e-23
  1.2428e+06   3.03e-23
  1.2856e+06   2.79e-23
  1.3299e+06   2.56e-23
  1.3757e+06   2.36e-23
  1.4231e+06   2.16e-23
  1.4721e+06   1.99e-23
  1.5228e+06   1.82e-23
  1.5752e+06   1.68e-23
  1.6294e+06   1.54e-23
  1.6855e+06   1.41e-23
  1.7436e+06   1.30e-23
  1.8036e+06   1.19e-23
  1.8657e+06   1.09e-23
  1.9300e+06   9.97e-24
  1.9964e+06   9.13e-24
  2.0652e+06   8.35e-24
  2.1363e+06   7.63e-24
  2.2098e+06   6.99e-24
  2.2859e+06   6.38e-24
  2.3646e+06   5.81e-24
  2.4461e+06   5.31e-24
  2.5303e+06   4.84e-24
  2.6174e+06   4.40e-24
  2.7075e+06   4.00e-24
  2.8008e+06   3.64e-24
  2.8972e+06   3.30e-24
  2.9970e+06   2.98e-24
  3.1002e+06   2.71e-24
  3.2069e+06   2.45e-24
  3.3173e+06   2.21e-24
  3.4316e+06   1.99e-24
  3.5497e+06   1.80e-24
  3.6720e+06   1.61e-24
  3.7984e+06   1.44e-24
  3.9292e+06   1.30e-24
  4.0645e+06   1.16e-24
  4.2044e+06   1.03e-24
  4.3492e+06   9.22e-25
  4.4990e+06   8.21e-25
  4.6539e+06   7.27e-25
  4.8141e+06   6.43e-25
  4.9799e+06   5.68e-25
  5.1514e+06   4.99e-25
  5.3288e+06   4.36e-25
  5.5123e+06   3.83e-25
  5.7021e+06   3.35e-25
  5.8984e+06   2.90e-25
  6.1015e+06   2.52e-25
  6.3116e+06   2.18e-25
  6.5289e+06   1.87e-25
  6.7538e+06   1.60e-25
  6.9863e+06   1.37e-25
  7.2269e+06   1.17e-25
  7.4757e+06   9.80e-26
  7.7331e+06   8.30e-26
  7.9994e+06   6.97e-26
  8.2749e+06   5.78e-26
  8.5598e+06   4.79e-26
  8.8546e+06   3.97e-26
  9.1594e+06   3.24e-26
  9.4748e+06   2.61e-26
  9.8011e+06   2.13e-26
  1.0139e+07   1.71e-26
  1.0488e+07   1.34e-26
  1.0849e+07   1.06e-26
  1.1222e+07   8.28e-27
  1.1609e+07   6.34e-27
  1.2009e+07   4.79e-27
  1.2422e+07   3.65e-27
  1.2850e+07   2.71e-27
  1.3292e+07   1.96e-27
  1.3750e+07   1.43e-27
  1.4223e+07   1.02e-27
  1.4713e+07   7.05e-28
  1.5220e+07   4.80e-28
  1.5744e+07   3.25e-28
  1.6286e+07   2.11e-28
  1.6847e+07   1.32e-28
  1.7427e+07   8.24e-29
  1.8027e+07   4.92e-29
  1.8648e+07   2.78e-29
  1.9290e+07   1.52e-29
  1.9954e+07   7.99e-30
  2.0641e+07   3.89e-30
  2.1352e+07   1.76e-30
  2.2087e+07   7.54e-31
  2.2848e+07   2.91e-31
  2.3634e+07   9.80e-32
  2.4448e+07   3.07e-32
  2.5290e+07   8.27e-33
