#  E [MeV]   Flux [# cm^{-2} s^{-1}  MeV^{-1}]
  3.0000e+04   3.88e-22
  3.0696e+04   3.75e-22
  3.1408e+04   3.63e-22
  3.2137e+04   3.51e-22
  3.2883e+04   3.39e-22
  3.3646e+04   3.27e-22
  3.4426e+04   3.16e-22
  3.5225e+04   3.06e-22
  3.6042e+04   2.95e-22
  3.6878e+04   2.84e-22
  3.7734e+04   2.74e-22
  3.8609e+04   2.64e-22
  3.9505e+04   2.55e-22
  4.0422e+04   2.46e-22
  4.1360e+04   2.37e-22
  4.2319e+04   2.28e-22
  4.3301e+04   2.20e-22
  4.4306e+04   2.12e-22
  4.5334e+04   2.04e-22
  4.6386e+04   1.96e-22
  4.7462e+04   1.89e-22
  4.8563e+04   1.82e-22
  4.9690e+04   1.75e-22
  5.0843e+04   1.69e-22
  5.2022e+04   1.63e-22
  5.3229e+04   1.56e-22
  5.4464e+04   1.51e-22
  5.5728e+04   1.45e-22
  5.7021e+04   1.39e-22
  5.8344e+04   1.34e-22
  5.9697e+04   1.29e-22
  6.1083e+04   1.24e-22
  6.2500e+04   1.19e-22
  6.3950e+04   1.15e-22
  6.5434e+04   1.10e-22
  6.6952e+04   1.06e-22
  6.8505e+04   1.02e-22
  7.0095e+04   9.80e-23
  7.1721e+04   9.41e-23
  7.3385e+04   9.04e-23
  7.5088e+04   8.68e-23
  7.6830e+04   8.32e-23
  7.8612e+04   7.98e-23
  8.0436e+04   7.66e-23
  8.2302e+04   7.34e-23
  8.4212e+04   7.04e-23
  8.6166e+04   6.75e-23
  8.8165e+04   6.46e-23
  9.0210e+04   6.19e-23
  9.2304e+04   5.93e-23
  9.4445e+04   5.67e-23
  9.6636e+04   5.43e-23
  9.8878e+04   5.19e-23
  1.0117e+05   4.96e-23
  1.0352e+05   4.75e-23
  1.0592e+05   4.54e-23
  1.0838e+05   4.34e-23
  1.1089e+05   4.14e-23
  1.1347e+05   3.95e-23
  1.1610e+05   3.77e-23
  1.1879e+05   3.60e-23
  1.2155e+05   3.44e-23
  1.2437e+05   3.28e-23
  1.2725e+05   3.12e-23
  1.3021e+05   2.98e-23
  1.3323e+05   2.84e-23
  1.3632e+05   2.70e-23
  1.3948e+05   2.57e-23
  1.4272e+05   2.44e-23
  1.4603e+05   2.33e-23
  1.4942e+05   2.21e-23
  1.5288e+05   2.10e-23
  1.5643e+05   1.99e-23
  1.6006e+05   1.89e-23
  1.6377e+05   1.80e-23
  1.6757e+05   1.70e-23
  1.7146e+05   1.62e-23
  1.7544e+05   1.53e-23
  1.7951e+05   1.45e-23
  1.8368e+05   1.37e-23
  1.8794e+05   1.30e-23
  1.9230e+05   1.23e-23
  1.9676e+05   1.16e-23
  2.0132e+05   1.10e-23
  2.0600e+05   1.04e-23
  2.1078e+05   9.78e-24
  2.1567e+05   9.22e-24
  2.2067e+05   8.69e-24
  2.2579e+05   8.18e-24
  2.3103e+05   7.71e-24
  2.3639e+05   7.27e-24
  2.4187e+05   6.83e-24
  2.4748e+05   6.42e-24
  2.5323e+05   6.02e-24
  2.5910e+05   5.67e-24
  2.6511e+05   5.32e-24
  2.7126e+05   4.99e-24
  2.7756e+05   4.67e-24
  2.8400e+05   4.37e-24
  2.9059e+05   4.10e-24
  2.9733e+05   3.83e-24
  3.0423e+05   3.58e-24
  3.1129e+05   3.34e-24
  3.1851e+05   3.11e-24
  3.2590e+05   2.91e-24
  3.3346e+05   2.71e-24
  3.4120e+05   2.53e-24
  3.4911e+05   2.35e-24
  3.5721e+05   2.18e-24
  3.6550e+05   2.03e-24
  3.7398e+05   1.89e-24
  3.8266e+05   1.75e-24
  3.9154e+05   1.62e-24
  4.0062e+05   1.50e-24
  4.0991e+05   1.39e-24
  4.1943e+05   1.29e-24
  4.2916e+05   1.19e-24
  4.3911e+05   1.10e-24
  4.4930e+05   1.01e-24
  4.5973e+05   9.39e-25
  4.7039e+05   8.67e-25
  4.8131e+05   7.99e-25
  4.9247e+05   7.33e-25
  5.0390e+05   6.72e-25
  5.1559e+05   6.21e-25
  5.2755e+05   5.72e-25
  5.3979e+05   5.24e-25
  5.5232e+05   4.79e-25
  5.6513e+05   4.37e-25
  5.7824e+05   4.03e-25
  5.9166e+05   3.69e-25
  6.0539e+05   3.37e-25
  6.1943e+05   3.07e-25
  6.3381e+05   2.78e-25
  6.4851e+05   2.55e-25
  6.6356e+05   2.34e-25
  6.7895e+05   2.13e-25
  6.9471e+05   1.92e-25
  7.1082e+05   1.74e-25
  7.2732e+05   1.59e-25
  7.4419e+05   1.45e-25
  7.6146e+05   1.31e-25
  7.7912e+05   1.19e-25
  7.9720e+05   1.07e-25
  8.1570e+05   9.72e-26
  8.3462e+05   8.84e-26
  8.5399e+05   7.99e-26
  8.7380e+05   7.17e-26
  8.9407e+05   6.42e-26
  9.1482e+05   5.84e-26
  9.3604e+05   5.30e-26
  9.5776e+05   4.77e-26
  9.7998e+05   4.27e-26
  1.0027e+06   3.80e-26
  1.0260e+06   3.46e-26
  1.0498e+06   3.13e-26
  1.0741e+06   2.81e-26
  1.0991e+06   2.51e-26
  1.1246e+06   2.22e-26
  1.1507e+06   2.02e-26
  1.1774e+06   1.82e-26
  1.2047e+06   1.63e-26
  1.2326e+06   1.45e-26
  1.2612e+06   1.28e-26
  1.2905e+06   1.16e-26
  1.3204e+06   1.05e-26
  1.3511e+06   9.38e-27
  1.3824e+06   8.35e-27
  1.4145e+06   7.37e-27
  1.4473e+06   6.70e-27
  1.4809e+06   6.06e-27
  1.5152e+06   5.44e-27
  1.5504e+06   4.86e-27
  1.5864e+06   4.30e-27
  1.6232e+06   3.93e-27
  1.6608e+06   3.57e-27
  1.6994e+06   3.22e-27
  1.7388e+06   2.89e-27
  1.7791e+06   2.58e-27
  1.8204e+06   2.37e-27
  1.8626e+06   2.18e-27
  1.9059e+06   1.99e-27
  1.9501e+06   1.82e-27
  1.9953e+06   1.64e-27
  2.0416e+06   1.53e-27
  2.0890e+06   1.42e-27
  2.1375e+06   1.31e-27
  2.1870e+06   1.21e-27
  2.2378e+06   1.11e-27
  2.2897e+06   1.03e-27
  2.3428e+06   9.63e-28
  2.3972e+06   8.95e-28
  2.4528e+06   8.30e-28
  2.5097e+06   7.68e-28
  2.5680e+06   7.13e-28
  2.6275e+06   6.60e-28
  2.6885e+06   6.10e-28
  2.7509e+06   5.61e-28
  2.8147e+06   5.15e-28
  2.8800e+06   4.84e-28
