#  E [MeV]   Flux [# cm^{-2} s^{-1}  MeV^{-1}]
  3.0000e+04   1.74e-24
  3.0962e+04   1.68e-24
  3.1955e+04   1.62e-24
  3.2979e+04   1.56e-24
  3.4037e+04   1.51e-24
  3.5128e+04   1.46e-24
  3.6254e+04   1.40e-24
  3.7417e+04   1.35e-24
  3.8616e+04   1.31e-24
  3.9855e+04   1.26e-24
  4.1132e+04   1.21e-24
  4.2451e+04   1.17e-24
  4.3812e+04   1.13e-24
  4.5217e+04   1.09e-24
  4.6667e+04   1.05e-24
  4.8163e+04   1.01e-24
  4.9707e+04   9.71e-25
  5.1301e+04   9.35e-25
  5.2946e+04   9.00e-25
  5.4644e+04   8.66e-25
  5.6396e+04   8.33e-25
  5.8204e+04   8.01e-25
  6.0070e+04   7.71e-25
  6.1996e+04   7.41e-25
  6.3984e+04   7.12e-25
  6.6035e+04   6.85e-25
  6.8153e+04   6.58e-25
  7.0338e+04   6.32e-25
  7.2593e+04   6.07e-25
  7.4921e+04   5.83e-25
  7.7323e+04   5.60e-25
  7.9802e+04   5.37e-25
  8.2361e+04   5.15e-25
  8.5002e+04   4.94e-25
  8.7727e+04   4.74e-25
  9.0540e+04   4.55e-25
  9.3443e+04   4.36e-25
  9.6439e+04   4.18e-25
  9.9531e+04   4.00e-25
  1.0272e+05   3.83e-25
  1.0602e+05   3.67e-25
  1.0942e+05   3.51e-25
  1.1292e+05   3.36e-25
  1.1654e+05   3.21e-25
  1.2028e+05   3.07e-25
  1.2414e+05   2.94e-25
  1.2812e+05   2.81e-25
  1.3223e+05   2.68e-25
  1.3646e+05   2.56e-25
  1.4084e+05   2.44e-25
  1.4536e+05   2.33e-25
  1.5002e+05   2.22e-25
  1.5483e+05   2.12e-25
  1.5979e+05   2.02e-25
  1.6491e+05   1.93e-25
  1.7020e+05   1.84e-25
  1.7566e+05   1.75e-25
  1.8129e+05   1.67e-25
  1.8710e+05   1.58e-25
  1.9310e+05   1.51e-25
  1.9929e+05   1.43e-25
  2.0568e+05   1.36e-25
  2.1228e+05   1.29e-25
  2.1909e+05   1.23e-25
  2.2611e+05   1.17e-25
  2.3336e+05   1.11e-25
  2.4084e+05   1.05e-25
  2.4856e+05   9.94e-26
  2.5653e+05   9.42e-26
  2.6476e+05   8.93e-26
  2.7325e+05   8.45e-26
  2.8201e+05   8.00e-26
  2.9105e+05   7.56e-26
  3.0038e+05   7.15e-26
  3.1002e+05   6.75e-26
  3.1996e+05   6.38e-26
  3.3021e+05   6.02e-26
  3.4080e+05   5.68e-26
  3.5173e+05   5.36e-26
  3.6301e+05   5.05e-26
  3.7465e+05   4.76e-26
  3.8666e+05   4.48e-26
  3.9905e+05   4.22e-26
  4.1185e+05   3.96e-26
  4.2506e+05   3.72e-26
  4.3868e+05   3.50e-26
  4.5275e+05   3.28e-26
  4.6727e+05   3.08e-26
  4.8225e+05   2.89e-26
  4.9771e+05   2.71e-26
  5.1367e+05   2.54e-26
  5.3014e+05   2.37e-26
  5.4714e+05   2.22e-26
  5.6468e+05   2.08e-26
  5.8278e+05   1.94e-26
  6.0147e+05   1.81e-26
  6.2075e+05   1.69e-26
  6.4066e+05   1.58e-26
  6.6120e+05   1.47e-26
  6.8240e+05   1.37e-26
  7.0428e+05   1.28e-26
  7.2686e+05   1.19e-26
  7.5017e+05   1.11e-26
  7.7422e+05   1.03e-26
  7.9904e+05   9.62e-27
  8.2466e+05   8.94e-27
  8.5110e+05   8.30e-27
  8.7839e+05   7.71e-27
  9.0656e+05   7.16e-27
  9.3562e+05   6.65e-27
  9.6562e+05   6.16e-27
  9.9658e+05   5.72e-27
  1.0285e+06   5.31e-27
  1.0615e+06   4.92e-27
  1.0956e+06   4.55e-27
  1.1307e+06   4.22e-27
  1.1669e+06   3.91e-27
  1.2043e+06   3.61e-27
  1.2430e+06   3.34e-27
  1.2828e+06   3.09e-27
  1.3239e+06   2.85e-27
  1.3664e+06   2.63e-27
  1.4102e+06   2.43e-27
  1.4554e+06   2.25e-27
  1.5021e+06   2.07e-27
  1.5502e+06   1.91e-27
  1.6000e+06   1.76e-27
  1.6513e+06   1.62e-27
  1.7042e+06   1.49e-27
  1.7588e+06   1.37e-27
  1.8152e+06   1.27e-27
  1.8734e+06   1.16e-27
  1.9335e+06   1.07e-27
  1.9955e+06   9.83e-28
  2.0595e+06   9.03e-28
  2.1255e+06   8.28e-28
  2.1937e+06   7.58e-28
  2.2640e+06   6.97e-28
  2.3366e+06   6.39e-28
  2.4115e+06   5.84e-28
  2.4888e+06   5.34e-28
  2.5686e+06   4.90e-28
  2.6510e+06   4.47e-28
  2.7360e+06   4.07e-28
  2.8237e+06   3.73e-28
  2.9142e+06   3.41e-28
  3.0077e+06   3.10e-28
  3.1041e+06   2.82e-28
  3.2036e+06   2.58e-28
  3.3064e+06   2.35e-28
  3.4124e+06   2.13e-28
  3.5218e+06   1.93e-28
  3.6347e+06   1.76e-28
  3.7512e+06   1.60e-28
  3.8715e+06   1.44e-28
  3.9957e+06   1.31e-28
  4.1238e+06   1.19e-28
  4.2560e+06   1.08e-28
  4.3924e+06   9.74e-29
  4.5333e+06   8.85e-29
  4.6786e+06   8.01e-29
  4.8286e+06   7.23e-29
  4.9835e+06   6.55e-29
  5.1433e+06   5.95e-29
  5.3082e+06   5.38e-29
  5.4784e+06   4.85e-29
  5.6540e+06   4.42e-29
  5.8353e+06   4.01e-29
  6.0224e+06   3.63e-29
  6.2155e+06   3.29e-29
  6.4148e+06   3.01e-29
  6.6205e+06   2.74e-29
  6.8327e+06   2.49e-29
  7.0518e+06   2.29e-29
  7.2779e+06   2.11e-29
  7.5113e+06   1.93e-29
  7.7521e+06   1.77e-29
  8.0007e+06   1.64e-29
  8.2572e+06   1.52e-29
  8.5219e+06   1.41e-29
  8.7952e+06   1.31e-29
  9.0772e+06   1.23e-29
  9.3682e+06   1.15e-29
  9.6686e+06   1.07e-29
  9.9786e+06   1.02e-29
  1.0299e+07   9.67e-30
  1.0629e+07   9.18e-30
  1.0970e+07   8.73e-30
  1.1321e+07   8.51e-30
  1.1684e+07   8.24e-30
  1.2059e+07   7.93e-30
  1.2446e+07   7.87e-30
  1.2845e+07   8.00e-30
  1.3256e+07   7.99e-30
  1.3681e+07   7.87e-30
  1.4120e+07   8.87e-30
  1.4573e+07   9.68e-30
  1.5040e+07   1.01e-29
  1.5522e+07   1.01e-29
  1.6020e+07   9.41e-30
