#  E [MeV]   Flux [# cm^{-2} s^{-1}  MeV^{-1}]
  3.0000e+04   2.12e-24
  3.1051e+04   2.04e-24
  3.2139e+04   1.97e-24
  3.3266e+04   1.89e-24
  3.4432e+04   1.82e-24
  3.5638e+04   1.76e-24
  3.6887e+04   1.69e-24
  3.8180e+04   1.63e-24
  3.9518e+04   1.57e-24
  4.0903e+04   1.51e-24
  4.2336e+04   1.46e-24
  4.3820e+04   1.40e-24
  4.5355e+04   1.35e-24
  4.6945e+04   1.30e-24
  4.8590e+04   1.25e-24
  5.0293e+04   1.20e-24
  5.2055e+04   1.16e-24
  5.3879e+04   1.11e-24
  5.5767e+04   1.07e-24
  5.7722e+04   1.03e-24
  5.9745e+04   9.89e-25
  6.1838e+04   9.50e-25
  6.4005e+04   9.13e-25
  6.6248e+04   8.77e-25
  6.8570e+04   8.43e-25
  7.0973e+04   8.10e-25
  7.3460e+04   7.78e-25
  7.6034e+04   7.47e-25
  7.8699e+04   7.17e-25
  8.1457e+04   6.88e-25
  8.4311e+04   6.60e-25
  8.7266e+04   6.33e-25
  9.0324e+04   6.07e-25
  9.3490e+04   5.82e-25
  9.6766e+04   5.58e-25
  1.0016e+05   5.35e-25
  1.0367e+05   5.12e-25
  1.0730e+05   4.91e-25
  1.1106e+05   4.70e-25
  1.1495e+05   4.50e-25
  1.1898e+05   4.31e-25
  1.2315e+05   4.12e-25
  1.2747e+05   3.94e-25
  1.3193e+05   3.77e-25
  1.3656e+05   3.60e-25
  1.4134e+05   3.44e-25
  1.4629e+05   3.28e-25
  1.5142e+05   3.14e-25
  1.5673e+05   2.99e-25
  1.6222e+05   2.86e-25
  1.6790e+05   2.72e-25
  1.7379e+05   2.60e-25
  1.7988e+05   2.48e-25
  1.8618e+05   2.36e-25
  1.9271e+05   2.24e-25
  1.9946e+05   2.14e-25
  2.0645e+05   2.03e-25
  2.1369e+05   1.93e-25
  2.2117e+05   1.84e-25
  2.2892e+05   1.74e-25
  2.3695e+05   1.66e-25
  2.4525e+05   1.57e-25
  2.5385e+05   1.49e-25
  2.6274e+05   1.41e-25
  2.7195e+05   1.34e-25
  2.8148e+05   1.27e-25
  2.9134e+05   1.20e-25
  3.0155e+05   1.14e-25
  3.1212e+05   1.07e-25
  3.2306e+05   1.01e-25
  3.3438e+05   9.58e-26
  3.4610e+05   9.05e-26
  3.5823e+05   8.53e-26
  3.7078e+05   8.04e-26
  3.8377e+05   7.58e-26
  3.9722e+05   7.13e-26
  4.1114e+05   6.71e-26
  4.2555e+05   6.31e-26
  4.4046e+05   5.93e-26
  4.5590e+05   5.58e-26
  4.7188e+05   5.23e-26
  4.8841e+05   4.91e-26
  5.0553e+05   4.61e-26
  5.2324e+05   4.32e-26
  5.4158e+05   4.04e-26
  5.6056e+05   3.79e-26
  5.8020e+05   3.54e-26
  6.0054e+05   3.31e-26
  6.2158e+05   3.10e-26
  6.4337e+05   2.89e-26
  6.6591e+05   2.70e-26
  6.8925e+05   2.52e-26
  7.1340e+05   2.35e-26
  7.3840e+05   2.19e-26
  7.6428e+05   2.04e-26
  7.9106e+05   1.90e-26
  8.1878e+05   1.77e-26
  8.4748e+05   1.65e-26
  8.7718e+05   1.53e-26
  9.0792e+05   1.42e-26
  9.3973e+05   1.32e-26
  9.7267e+05   1.23e-26
  1.0068e+06   1.14e-26
  1.0420e+06   1.06e-26
  1.0785e+06   9.82e-27
  1.1163e+06   9.11e-27
  1.1555e+06   8.45e-27
  1.1960e+06   7.83e-27
  1.2379e+06   7.25e-27
  1.2813e+06   6.72e-27
  1.3262e+06   6.22e-27
  1.3726e+06   5.75e-27
  1.4207e+06   5.32e-27
  1.4705e+06   4.92e-27
  1.5220e+06   4.54e-27
  1.5754e+06   4.20e-27
  1.6306e+06   3.88e-27
  1.6877e+06   3.58e-27
  1.7469e+06   3.30e-27
  1.8081e+06   3.04e-27
  1.8715e+06   2.80e-27
  1.9370e+06   2.58e-27
  2.0049e+06   2.38e-27
  2.0752e+06   2.19e-27
  2.1479e+06   2.01e-27
  2.2232e+06   1.85e-27
  2.3011e+06   1.70e-27
  2.3817e+06   1.56e-27
  2.4652e+06   1.43e-27
  2.5516e+06   1.31e-27
  2.6410e+06   1.20e-27
  2.7336e+06   1.09e-27
  2.8294e+06   1.00e-27
  2.9285e+06   9.14e-28
  3.0311e+06   8.32e-28
  3.1374e+06   7.58e-28
  3.2473e+06   6.91e-28
  3.3611e+06   6.27e-28
  3.4789e+06   5.69e-28
  3.6008e+06   5.17e-28
  3.7270e+06   4.68e-28
  3.8576e+06   4.23e-28
  3.9928e+06   3.83e-28
  4.1327e+06   3.46e-28
  4.2775e+06   3.11e-28
  4.4274e+06   2.80e-28
  4.5826e+06   2.52e-28
  4.7432e+06   2.25e-28
  4.9094e+06   2.01e-28
  5.0815e+06   1.81e-28
  5.2595e+06   1.61e-28
  5.4438e+06   1.43e-28
  5.6346e+06   1.27e-28
  5.8321e+06   1.13e-28
  6.0365e+06   9.94e-29
  6.2480e+06   8.77e-29
  6.4670e+06   7.74e-29
  6.6936e+06   6.78e-29
  6.9282e+06   5.91e-29
  7.1709e+06   5.18e-29
  7.4222e+06   4.51e-29
  7.6823e+06   3.89e-29
  7.9516e+06   3.38e-29
  8.2302e+06   2.92e-29
  8.5186e+06   2.50e-29
  8.8172e+06   2.13e-29
  9.1262e+06   1.83e-29
  9.4460e+06   1.55e-29
  9.7770e+06   1.30e-29
  1.0120e+07   1.10e-29
  1.0474e+07   9.23e-30
  1.0841e+07   7.62e-30
  1.1221e+07   6.34e-30
  1.1614e+07   5.23e-30
  1.2022e+07   4.25e-30
  1.2443e+07   3.44e-30
  1.2879e+07   2.79e-30
  1.3330e+07   2.22e-30
  1.3797e+07   1.73e-30
  1.4281e+07   1.38e-30
  1.4781e+07   1.07e-30
  1.5299e+07   8.11e-31
  1.5835e+07   6.21e-31
  1.6390e+07   4.68e-31
  1.6965e+07   3.43e-31
  1.7559e+07   2.49e-31
  1.8175e+07   1.80e-31
  1.8812e+07   1.26e-31
  1.9471e+07   8.46e-32
  2.0153e+07   5.75e-32
  2.0859e+07   3.74e-32
  2.1590e+07   2.31e-32
  2.2347e+07   1.40e-32
  2.3130e+07   8.16e-33
  2.3941e+07   4.42e-33
  2.4780e+07   2.26e-33
  2.5648e+07   1.09e-33
  2.6547e+07   4.75e-34
  2.7477e+07   1.82e-34
  2.8440e+07   6.55e-35
