#  E [MeV]   Flux [# cm^{-2} s^{-1}  MeV^{-1}]
  3.0000e+04   1.92e-24
  3.1051e+04   1.83e-24
  3.2139e+04   1.76e-24
  3.3266e+04   1.68e-24
  3.4432e+04   1.61e-24
  3.5638e+04   1.54e-24
  3.6887e+04   1.48e-24
  3.8180e+04   1.41e-24
  3.9518e+04   1.35e-24
  4.0903e+04   1.29e-24
  4.2336e+04   1.24e-24
  4.3820e+04   1.18e-24
  4.5355e+04   1.13e-24
  4.6945e+04   1.08e-24
  4.8590e+04   1.03e-24
  5.0293e+04   9.89e-25
  5.2055e+04   9.45e-25
  5.3879e+04   9.04e-25
  5.5767e+04   8.64e-25
  5.7722e+04   8.25e-25
  5.9745e+04   7.88e-25
  6.1838e+04   7.53e-25
  6.4005e+04   7.19e-25
  6.6248e+04   6.87e-25
  6.8570e+04   6.56e-25
  7.0973e+04   6.27e-25
  7.3460e+04   5.98e-25
  7.6034e+04   5.71e-25
  7.8699e+04   5.45e-25
  8.1457e+04   5.21e-25
  8.4311e+04   4.97e-25
  8.7266e+04   4.74e-25
  9.0324e+04   4.52e-25
  9.3490e+04   4.32e-25
  9.6766e+04   4.12e-25
  1.0016e+05   3.93e-25
  1.0367e+05   3.74e-25
  1.0730e+05   3.57e-25
  1.1106e+05   3.40e-25
  1.1495e+05   3.25e-25
  1.1898e+05   3.09e-25
  1.2315e+05   2.95e-25
  1.2747e+05   2.81e-25
  1.3193e+05   2.68e-25
  1.3656e+05   2.55e-25
  1.4134e+05   2.43e-25
  1.4629e+05   2.31e-25
  1.5142e+05   2.20e-25
  1.5673e+05   2.10e-25
  1.6222e+05   2.00e-25
  1.6790e+05   1.90e-25
  1.7379e+05   1.81e-25
  1.7988e+05   1.72e-25
  1.8618e+05   1.64e-25
  1.9271e+05   1.56e-25
  1.9946e+05   1.48e-25
  2.0645e+05   1.41e-25
  2.1369e+05   1.34e-25
  2.2117e+05   1.27e-25
  2.2892e+05   1.21e-25
  2.3695e+05   1.14e-25
  2.4525e+05   1.09e-25
  2.5385e+05   1.03e-25
  2.6274e+05   9.77e-26
  2.7195e+05   9.26e-26
  2.8148e+05   8.78e-26
  2.9134e+05   8.31e-26
  3.0155e+05   7.87e-26
  3.1212e+05   7.44e-26
  3.2306e+05   7.04e-26
  3.3438e+05   6.65e-26
  3.4610e+05   6.29e-26
  3.5823e+05   5.93e-26
  3.7078e+05   5.60e-26
  3.8377e+05   5.28e-26
  3.9722e+05   4.97e-26
  4.1114e+05   4.68e-26
  4.2555e+05   4.41e-26
  4.4046e+05   4.15e-26
  4.5590e+05   3.91e-26
  4.7188e+05   3.68e-26
  4.8841e+05   3.46e-26
  5.0553e+05   3.25e-26
  5.2324e+05   3.06e-26
  5.4158e+05   2.87e-26
  5.6056e+05   2.70e-26
  5.8020e+05   2.54e-26
  6.0054e+05   2.38e-26
  6.2158e+05   2.23e-26
  6.4337e+05   2.10e-26
  6.6591e+05   1.96e-26
  6.8925e+05   1.84e-26
  7.1340e+05   1.72e-26
  7.3840e+05   1.61e-26
  7.6428e+05   1.51e-26
  7.9106e+05   1.41e-26
  8.1878e+05   1.32e-26
  8.4748e+05   1.23e-26
  8.7718e+05   1.15e-26
  9.0792e+05   1.07e-26
  9.3973e+05   9.97e-27
  9.7267e+05   9.28e-27
  1.0068e+06   8.63e-27
  1.0420e+06   8.04e-27
  1.0785e+06   7.47e-27
  1.1163e+06   6.93e-27
  1.1555e+06   6.44e-27
  1.1960e+06   5.98e-27
  1.2379e+06   5.54e-27
  1.2813e+06   5.13e-27
  1.3262e+06   4.75e-27
  1.3726e+06   4.40e-27
  1.4207e+06   4.06e-27
  1.4705e+06   3.75e-27
  1.5220e+06   3.46e-27
  1.5754e+06   3.18e-27
  1.6306e+06   2.94e-27
  1.6877e+06   2.70e-27
  1.7469e+06   2.48e-27
  1.8081e+06   2.28e-27
  1.8715e+06   2.09e-27
  1.9370e+06   1.91e-27
  2.0049e+06   1.75e-27
  2.0752e+06   1.60e-27
  2.1479e+06   1.46e-27
  2.2232e+06   1.33e-27
  2.3011e+06   1.22e-27
  2.3817e+06   1.11e-27
  2.4652e+06   1.01e-27
  2.5516e+06   9.14e-28
  2.6410e+06   8.31e-28
  2.7336e+06   7.52e-28
  2.8294e+06   6.79e-28
  2.9285e+06   6.15e-28
  3.0311e+06   5.54e-28
  3.1374e+06   4.97e-28
  3.2473e+06   4.48e-28
  3.3611e+06   4.03e-28
  3.4789e+06   3.60e-28
  3.6008e+06   3.22e-28
  3.7270e+06   2.89e-28
  3.8576e+06   2.57e-28
  3.9928e+06   2.28e-28
  4.1327e+06   2.04e-28
  4.2775e+06   1.81e-28
  4.4274e+06   1.60e-28
  4.5826e+06   1.42e-28
  4.7432e+06   1.26e-28
  4.9094e+06   1.11e-28
  5.0815e+06   9.76e-29
  5.2595e+06   8.63e-29
  5.4438e+06   7.56e-29
  5.6346e+06   6.59e-29
  5.8321e+06   5.81e-29
  6.0365e+06   5.07e-29
  6.2480e+06   4.37e-29
  6.4670e+06   3.83e-29
  6.6936e+06   3.34e-29
  6.9282e+06   2.88e-29
  7.1709e+06   2.49e-29
  7.4222e+06   2.17e-29
  7.6823e+06   1.86e-29
  7.9516e+06   1.59e-29
  8.2302e+06   1.38e-29
  8.5186e+06   1.19e-29
  8.8172e+06   1.01e-29
  9.1262e+06   8.71e-30
  9.4460e+06   7.48e-30
  9.7770e+06   6.34e-30
  1.0120e+07   5.41e-30
  1.0474e+07   4.65e-30
  1.0841e+07   3.94e-30
  1.1221e+07   3.31e-30
  1.1614e+07   2.85e-30
  1.2022e+07   2.43e-30
  1.2443e+07   2.03e-30
  1.2879e+07   1.74e-30
  1.3330e+07   1.49e-30
  1.3797e+07   1.26e-30
  1.4281e+07   1.07e-30
  1.4781e+07   9.18e-31
  1.5299e+07   7.80e-31
  1.5835e+07   6.59e-31
  1.6390e+07   5.69e-31
  1.6965e+07   4.86e-31
  1.7559e+07   4.10e-31
  1.8175e+07   3.53e-31
  1.8812e+07   3.03e-31
  1.9471e+07   2.58e-31
  2.0153e+07   2.19e-31
  2.0859e+07   1.86e-31
  2.1590e+07   1.57e-31
  2.2347e+07   1.31e-31
  2.3130e+07   1.08e-31
  2.3941e+07   8.84e-32
  2.4780e+07   7.10e-32
  2.5648e+07   5.60e-32
  2.6547e+07   4.32e-32
  2.7477e+07   3.24e-32
  2.8440e+07   2.38e-32
