#  E [MeV]   Flux [# cm^{-2} s^{-1}  MeV^{-1}]
  3.0000e+04   2.27e-18
  3.0589e+04   2.19e-18
  3.1190e+04   2.12e-18
  3.1803e+04   2.04e-18
  3.2428e+04   1.97e-18
  3.3065e+04   1.91e-18
  3.3714e+04   1.84e-18
  3.4376e+04   1.77e-18
  3.5052e+04   1.71e-18
  3.5740e+04   1.65e-18
  3.6442e+04   1.59e-18
  3.7158e+04   1.54e-18
  3.7888e+04   1.48e-18
  3.8632e+04   1.43e-18
  3.9391e+04   1.37e-18
  4.0165e+04   1.32e-18
  4.0954e+04   1.27e-18
  4.1758e+04   1.23e-18
  4.2579e+04   1.18e-18
  4.3415e+04   1.14e-18
  4.4268e+04   1.09e-18
  4.5138e+04   1.05e-18
  4.6024e+04   1.01e-18
  4.6928e+04   9.74e-19
  4.7850e+04   9.37e-19
  4.8790e+04   9.00e-19
  4.9749e+04   8.65e-19
  5.0726e+04   8.31e-19
  5.1722e+04   7.98e-19
  5.2738e+04   7.67e-19
  5.3774e+04   7.36e-19
  5.4831e+04   7.07e-19
  5.5908e+04   6.78e-19
  5.7006e+04   6.50e-19
  5.8126e+04   6.24e-19
  5.9268e+04   5.99e-19
  6.0432e+04   5.74e-19
  6.1619e+04   5.50e-19
  6.2829e+04   5.27e-19
  6.4064e+04   5.05e-19
  6.5322e+04   4.84e-19
  6.6605e+04   4.64e-19
  6.7913e+04   4.44e-19
  6.9248e+04   4.25e-19
  7.0608e+04   4.06e-19
  7.1995e+04   3.88e-19
  7.3409e+04   3.72e-19
  7.4851e+04   3.55e-19
  7.6321e+04   3.40e-19
  7.7821e+04   3.24e-19
  7.9349e+04   3.09e-19
  8.0908e+04   2.95e-19
  8.2497e+04   2.82e-19
  8.4118e+04   2.69e-19
  8.5770e+04   2.57e-19
  8.7455e+04   2.45e-19
  8.9173e+04   2.33e-19
  9.0925e+04   2.22e-19
  9.2711e+04   2.12e-19
  9.4532e+04   2.02e-19
  9.6389e+04   1.92e-19
  9.8283e+04   1.83e-19
  1.0021e+05   1.74e-19
  1.0218e+05   1.66e-19
  1.0419e+05   1.58e-19
  1.0624e+05   1.50e-19
  1.0832e+05   1.43e-19
  1.1045e+05   1.35e-19
  1.1262e+05   1.28e-19
  1.1483e+05   1.22e-19
  1.1709e+05   1.16e-19
  1.1939e+05   1.10e-19
  1.2173e+05   1.05e-19
  1.2412e+05   9.90e-20
  1.2656e+05   9.37e-20
  1.2905e+05   8.90e-20
  1.3158e+05   8.44e-20
  1.3417e+05   8.00e-20
  1.3680e+05   7.58e-20
  1.3949e+05   7.16e-20
  1.4223e+05   6.76e-20
  1.4503e+05   6.41e-20
  1.4787e+05   6.07e-20
  1.5078e+05   5.74e-20
  1.5374e+05   5.42e-20
  1.5676e+05   5.10e-20
  1.5984e+05   4.81e-20
  1.6298e+05   4.55e-20
  1.6618e+05   4.30e-20
  1.6945e+05   4.06e-20
  1.7278e+05   3.82e-20
  1.7617e+05   3.59e-20
  1.7963e+05   3.38e-20
  1.8316e+05   3.19e-20
  1.8676e+05   3.01e-20
  1.9042e+05   2.84e-20
  1.9417e+05   2.67e-20
  1.9798e+05   2.50e-20
  2.0187e+05   2.35e-20
  2.0583e+05   2.21e-20
  2.0988e+05   2.09e-20
  2.1400e+05   1.96e-20
  2.1820e+05   1.84e-20
  2.2249e+05   1.72e-20
  2.2686e+05   1.61e-20
  2.3132e+05   1.52e-20
  2.3586e+05   1.43e-20
  2.4049e+05   1.34e-20
  2.4522e+05   1.25e-20
  2.5004e+05   1.17e-20
  2.5495e+05   1.10e-20
  2.5996e+05   1.03e-20
  2.6506e+05   9.66e-21
  2.7027e+05   9.04e-21
  2.7558e+05   8.44e-21
  2.8099e+05   7.87e-21
  2.8651e+05   7.36e-21
  2.9214e+05   6.90e-21
  2.9788e+05   6.46e-21
  3.0373e+05   6.03e-21
  3.0970e+05   5.62e-21
  3.1578e+05   5.22e-21
  3.2198e+05   4.88e-21
  3.2831e+05   4.57e-21
  3.3476e+05   4.27e-21
  3.4133e+05   3.99e-21
  3.4804e+05   3.71e-21
  3.5487e+05   3.44e-21
  3.6185e+05   3.21e-21
  3.6895e+05   3.01e-21
  3.7620e+05   2.81e-21
  3.8359e+05   2.61e-21
  3.9113e+05   2.43e-21
  3.9881e+05   2.25e-21
  4.0664e+05   2.10e-21
  4.1463e+05   1.96e-21
  4.2278e+05   1.83e-21
  4.3108e+05   1.70e-21
  4.3955e+05   1.58e-21
  4.4818e+05   1.46e-21
  4.5699e+05   1.37e-21
  4.6596e+05   1.28e-21
  4.7512e+05   1.19e-21
  4.8445e+05   1.11e-21
  4.9397e+05   1.02e-21
  5.0367e+05   9.46e-22
  5.1356e+05   8.85e-22
  5.2365e+05   8.26e-22
  5.3394e+05   7.70e-22
  5.4443e+05   7.15e-22
  5.5512e+05   6.62e-22
  5.6603e+05   6.12e-22
  5.7715e+05   5.73e-22
  5.8848e+05   5.35e-22
  6.0004e+05   4.98e-22
  6.1183e+05   4.62e-22
  6.2385e+05   4.28e-22
  6.3610e+05   3.96e-22
  6.4860e+05   3.70e-22
  6.6134e+05   3.45e-22
  6.7433e+05   3.21e-22
  6.8758e+05   2.97e-22
  7.0108e+05   2.75e-22
  7.1486e+05   2.54e-22
  7.2890e+05   2.38e-22
  7.4322e+05   2.22e-22
  7.5782e+05   2.07e-22
  7.7270e+05   1.93e-22
  7.8788e+05   1.78e-22
  8.0336e+05   1.66e-22
  8.1914e+05   1.56e-22
  8.3523e+05   1.46e-22
  8.5164e+05   1.37e-22
  8.6837e+05   1.28e-22
  8.8542e+05   1.19e-22
  9.0282e+05   1.12e-22
  9.2055e+05   1.07e-22
  9.3863e+05   1.01e-22
  9.5707e+05   9.62e-23
  9.7587e+05   9.12e-23
  9.9504e+05   8.63e-23
  1.0146e+06   8.24e-23
  1.0345e+06   7.93e-23
  1.0548e+06   7.64e-23
  1.0756e+06   7.35e-23
  1.0967e+06   7.07e-23
  1.1182e+06   6.80e-23
  1.1402e+06   6.59e-23
  1.1626e+06   6.42e-23
  1.1854e+06   6.25e-23
  1.2087e+06   6.09e-23
  1.2325e+06   5.94e-23
  1.2567e+06   5.78e-23
  1.2814e+06   5.66e-23
  1.3065e+06   5.55e-23
  1.3322e+06   5.44e-23
  1.3584e+06   5.33e-23
  1.3851e+06   5.23e-23
  1.4123e+06   5.13e-23
  1.4400e+06   5.03e-23
