#  E [GeV]   # per interaction  [GeV^{-1}]
  3.0000e+01   2.71e-02
  3.1141e+01   2.61e-02
  3.2326e+01   2.51e-02
  3.3556e+01   2.41e-02
  3.4832e+01   2.32e-02
  3.6157e+01   2.23e-02
  3.7533e+01   2.15e-02
  3.8961e+01   2.06e-02
  4.0443e+01   1.98e-02
  4.1982e+01   1.91e-02
  4.3579e+01   1.83e-02
  4.5237e+01   1.76e-02
  4.6958e+01   1.69e-02
  4.8744e+01   1.62e-02
  5.0598e+01   1.56e-02
  5.2523e+01   1.49e-02
  5.4521e+01   1.43e-02
  5.6596e+01   1.37e-02
  5.8749e+01   1.32e-02
  6.0984e+01   1.26e-02
  6.3304e+01   1.21e-02
  6.5712e+01   1.16e-02
  6.8212e+01   1.11e-02
  7.0807e+01   1.07e-02
  7.3500e+01   1.02e-02
  7.6297e+01   9.79e-03
  7.9199e+01   9.37e-03
  8.2212e+01   8.97e-03
  8.5340e+01   8.59e-03
  8.8586e+01   8.22e-03
  9.1956e+01   7.86e-03
  9.5455e+01   7.52e-03
  9.9086e+01   7.19e-03
  1.0286e+02   6.88e-03
  1.0677e+02   6.58e-03
  1.1083e+02   6.28e-03
  1.1505e+02   6.00e-03
  1.1942e+02   5.74e-03
  1.2397e+02   5.48e-03
  1.2868e+02   5.23e-03
  1.3358e+02   5.00e-03
  1.3866e+02   4.77e-03
  1.4394e+02   4.55e-03
  1.4941e+02   4.34e-03
  1.5509e+02   4.14e-03
  1.6100e+02   3.95e-03
  1.6712e+02   3.77e-03
  1.7348e+02   3.59e-03
  1.8008e+02   3.42e-03
  1.8693e+02   3.26e-03
  1.9404e+02   3.11e-03
  2.0142e+02   2.96e-03
  2.0908e+02   2.82e-03
  2.1704e+02   2.69e-03
  2.2529e+02   2.56e-03
  2.3387e+02   2.43e-03
  2.4276e+02   2.32e-03
  2.5200e+02   2.20e-03
  2.6158e+02   2.10e-03
  2.7154e+02   1.99e-03
  2.8187e+02   1.90e-03
  2.9259e+02   1.80e-03
  3.0372e+02   1.71e-03
  3.1527e+02   1.63e-03
  3.2727e+02   1.55e-03
  3.3972e+02   1.47e-03
  3.5264e+02   1.40e-03
  3.6606e+02   1.33e-03
  3.7998e+02   1.26e-03
  3.9444e+02   1.20e-03
  4.0945e+02   1.14e-03
  4.2502e+02   1.08e-03
  4.4119e+02   1.03e-03
  4.5798e+02   9.77e-04
  4.7540e+02   9.27e-04
  4.9348e+02   8.81e-04
  5.1226e+02   8.37e-04
  5.3175e+02   7.95e-04
  5.5198e+02   7.55e-04
  5.7297e+02   7.18e-04
  5.9477e+02   6.82e-04
  6.1740e+02   6.48e-04
  6.4089e+02   6.17e-04
  6.6527e+02   5.87e-04
  6.9058e+02   5.58e-04
  7.1685e+02   5.31e-04
  7.4412e+02   5.06e-04
  7.7243e+02   4.82e-04
  8.0181e+02   4.60e-04
  8.3232e+02   4.38e-04
  8.6398e+02   4.18e-04
  8.9685e+02   3.99e-04
  9.3097e+02   3.81e-04
  9.6638e+02   3.64e-04
  1.0031e+03   3.49e-04
  1.0413e+03   3.34e-04
  1.0809e+03   3.19e-04
  1.1220e+03   3.06e-04
  1.1647e+03   2.93e-04
  1.2090e+03   2.81e-04
  1.2550e+03   2.70e-04
  1.3028e+03   2.59e-04
  1.3523e+03   2.49e-04
  1.4038e+03   2.40e-04
  1.4572e+03   2.31e-04
  1.5126e+03   2.22e-04
  1.5702e+03   2.14e-04
  1.6299e+03   2.06e-04
  1.6919e+03   1.98e-04
  1.7563e+03   1.91e-04
  1.8231e+03   1.85e-04
  1.8925e+03   1.78e-04
  1.9645e+03   1.72e-04
  2.0392e+03   1.66e-04
  2.1168e+03   1.61e-04
  2.1973e+03   1.55e-04
  2.2809e+03   1.50e-04
  2.3677e+03   1.45e-04
  2.4577e+03   1.40e-04
  2.5512e+03   1.35e-04
  2.6483e+03   1.31e-04
  2.7490e+03   1.26e-04
  2.8536e+03   1.22e-04
  2.9622e+03   1.17e-04
  3.0749e+03   1.13e-04
  3.1918e+03   1.09e-04
  3.3133e+03   1.05e-04
  3.4393e+03   1.01e-04
  3.5702e+03   9.74e-05
  3.7060e+03   9.36e-05
  3.8470e+03   8.99e-05
  3.9933e+03   8.62e-05
  4.1452e+03   8.26e-05
  4.3029e+03   7.91e-05
  4.4666e+03   7.57e-05
  4.6366e+03   7.23e-05
  4.8129e+03   6.89e-05
  4.9960e+03   6.56e-05
  5.1861e+03   6.23e-05
  5.3834e+03   5.91e-05
  5.5882e+03   5.60e-05
  5.8008e+03   5.29e-05
  6.0215e+03   4.99e-05
  6.2506e+03   4.69e-05
  6.4883e+03   4.39e-05
  6.7352e+03   4.11e-05
  6.9914e+03   3.83e-05
  7.2574e+03   3.56e-05
  7.5335e+03   3.30e-05
  7.8201e+03   3.05e-05
  8.1176e+03   2.80e-05
  8.4264e+03   2.57e-05
  8.7470e+03   2.34e-05
  9.0797e+03   2.12e-05
  9.4251e+03   1.91e-05
  9.7837e+03   1.72e-05
  1.0156e+04   1.53e-05
  1.0542e+04   1.35e-05
  1.0943e+04   1.19e-05
  1.1360e+04   1.03e-05
  1.1792e+04   8.92e-06
  1.2240e+04   7.63e-06
  1.2706e+04   6.44e-06
  1.3189e+04   5.39e-06
  1.3691e+04   4.45e-06
  1.4212e+04   3.61e-06
  1.4753e+04   2.89e-06
  1.5314e+04   2.27e-06
  1.5897e+04   1.75e-06
  1.6501e+04   1.32e-06
  1.7129e+04   9.70e-07
  1.7781e+04   6.93e-07
  1.8457e+04   4.80e-07
  1.9159e+04   3.21e-07
  1.9888e+04   2.05e-07
  2.0645e+04   1.25e-07
  2.1430e+04   7.25e-08
  2.2245e+04   3.94e-08
  2.3092e+04   2.00e-08
  2.3970e+04   9.30e-09
  2.4882e+04   3.94e-09
  2.5829e+04   1.49e-09
  2.6811e+04   4.92e-10
  2.7831e+04   1.39e-10
  2.8890e+04   3.28e-11
  2.9989e+04   6.14e-12
  3.1130e+04   8.84e-13
  3.2314e+04   9.20e-14
  3.3544e+04   6.42e-15
  3.4820e+04   2.78e-16
  3.6144e+04   6.70e-18
  3.7519e+04   7.67e-20
  3.8947e+04   3.54e-22
  4.0428e+04   5.21e-25
  4.1966e+04   1.76e-28
  4.3563e+04   9.31e-33
  4.5220e+04   4.53e-38
  4.6941e+04   9.59e-45
  4.8726e+04   9.64e-47
  5.0580e+04   8.86e-47
