#  E [GeV]   # per interaction  [GeV^{-1}]
  3.0000e+01   1.41e+00
  3.1232e+01   1.34e+00
  3.2514e+01   1.28e+00
  3.3849e+01   1.22e+00
  3.5238e+01   1.16e+00
  3.6685e+01   1.11e+00
  3.8191e+01   1.05e+00
  3.9759e+01   1.00e+00
  4.1391e+01   9.56e-01
  4.3090e+01   9.10e-01
  4.4859e+01   8.66e-01
  4.6701e+01   8.25e-01
  4.8618e+01   7.85e-01
  5.0614e+01   7.47e-01
  5.2692e+01   7.10e-01
  5.4855e+01   6.75e-01
  5.7107e+01   6.42e-01
  5.9451e+01   6.11e-01
  6.1892e+01   5.81e-01
  6.4433e+01   5.52e-01
  6.7078e+01   5.24e-01
  6.9832e+01   4.98e-01
  7.2699e+01   4.73e-01
  7.5683e+01   4.50e-01
  7.8790e+01   4.27e-01
  8.2025e+01   4.05e-01
  8.5392e+01   3.85e-01
  8.8898e+01   3.65e-01
  9.2547e+01   3.47e-01
  9.6347e+01   3.29e-01
  1.0030e+02   3.12e-01
  1.0442e+02   2.96e-01
  1.0871e+02   2.81e-01
  1.1317e+02   2.66e-01
  1.1782e+02   2.52e-01
  1.2265e+02   2.39e-01
  1.2769e+02   2.27e-01
  1.3293e+02   2.15e-01
  1.3839e+02   2.03e-01
  1.4407e+02   1.93e-01
  1.4998e+02   1.82e-01
  1.5614e+02   1.73e-01
  1.6255e+02   1.63e-01
  1.6922e+02   1.55e-01
  1.7617e+02   1.46e-01
  1.8340e+02   1.39e-01
  1.9093e+02   1.31e-01
  1.9877e+02   1.24e-01
  2.0693e+02   1.17e-01
  2.1543e+02   1.11e-01
  2.2427e+02   1.05e-01
  2.3348e+02   9.90e-02
  2.4306e+02   9.36e-02
  2.5304e+02   8.84e-02
  2.6343e+02   8.35e-02
  2.7424e+02   7.89e-02
  2.8550e+02   7.45e-02
  2.9722e+02   7.03e-02
  3.0942e+02   6.63e-02
  3.2213e+02   6.26e-02
  3.3535e+02   5.90e-02
  3.4912e+02   5.57e-02
  3.6345e+02   5.25e-02
  3.7837e+02   4.95e-02
  3.9390e+02   4.66e-02
  4.1008e+02   4.39e-02
  4.2691e+02   4.14e-02
  4.4444e+02   3.90e-02
  4.6268e+02   3.67e-02
  4.8168e+02   3.45e-02
  5.0145e+02   3.25e-02
  5.2204e+02   3.06e-02
  5.4347e+02   2.88e-02
  5.6578e+02   2.70e-02
  5.8901e+02   2.54e-02
  6.1319e+02   2.39e-02
  6.3836e+02   2.24e-02
  6.6457e+02   2.10e-02
  6.9185e+02   1.97e-02
  7.2025e+02   1.85e-02
  7.4982e+02   1.74e-02
  7.8061e+02   1.63e-02
  8.1265e+02   1.52e-02
  8.4601e+02   1.43e-02
  8.8075e+02   1.34e-02
  9.1690e+02   1.25e-02
  9.5455e+02   1.17e-02
  9.9373e+02   1.09e-02
  1.0345e+03   1.02e-02
  1.0770e+03   9.53e-03
  1.1212e+03   8.89e-03
  1.1672e+03   8.28e-03
  1.2152e+03   7.72e-03
  1.2650e+03   7.19e-03
  1.3170e+03   6.69e-03
  1.3711e+03   6.22e-03
  1.4273e+03   5.79e-03
  1.4859e+03   5.39e-03
  1.5469e+03   5.01e-03
  1.6104e+03   4.66e-03
  1.6766e+03   4.33e-03
  1.7454e+03   4.02e-03
  1.8170e+03   3.73e-03
  1.8916e+03   3.47e-03
  1.9693e+03   3.21e-03
  2.0501e+03   2.98e-03
  2.1343e+03   2.76e-03
  2.2219e+03   2.56e-03
  2.3131e+03   2.37e-03
  2.4081e+03   2.19e-03
  2.5070e+03   2.02e-03
  2.6099e+03   1.87e-03
  2.7170e+03   1.72e-03
  2.8286e+03   1.59e-03
  2.9447e+03   1.46e-03
  3.0656e+03   1.34e-03
  3.1914e+03   1.23e-03
  3.3225e+03   1.13e-03
  3.4589e+03   1.04e-03
  3.6008e+03   9.53e-04
  3.7487e+03   8.72e-04
  3.9026e+03   7.97e-04
  4.0628e+03   7.28e-04
  4.2296e+03   6.65e-04
  4.4032e+03   6.05e-04
  4.5840e+03   5.51e-04
  4.7722e+03   5.00e-04
  4.9681e+03   4.53e-04
  5.1720e+03   4.11e-04
  5.3844e+03   3.72e-04
  5.6054e+03   3.35e-04
  5.8355e+03   3.02e-04
  6.0751e+03   2.72e-04
  6.3245e+03   2.44e-04
  6.5841e+03   2.19e-04
  6.8544e+03   1.96e-04
  7.1358e+03   1.75e-04
  7.4288e+03   1.56e-04
  7.7338e+03   1.39e-04
  8.0513e+03   1.23e-04
  8.3818e+03   1.09e-04
  8.7259e+03   9.64e-05
  9.0841e+03   8.50e-05
  9.4571e+03   7.48e-05
  9.8453e+03   6.53e-05
  1.0249e+04   5.71e-05
  1.0670e+04   4.98e-05
  1.1108e+04   4.31e-05
  1.1564e+04   3.74e-05
  1.2039e+04   3.23e-05
  1.2533e+04   2.76e-05
  1.3048e+04   2.38e-05
  1.3584e+04   2.03e-05
  1.4141e+04   1.71e-05
  1.4722e+04   1.46e-05
  1.5326e+04   1.22e-05
  1.5955e+04   1.02e-05
  1.6610e+04   8.52e-06
  1.7292e+04   7.02e-06
  1.8002e+04   5.75e-06
  1.8741e+04   4.70e-06
  1.9511e+04   3.77e-06
  2.0312e+04   3.02e-06
  2.1145e+04   2.40e-06
  2.2013e+04   1.86e-06
  2.2917e+04   1.44e-06
  2.3858e+04   1.09e-06
  2.4837e+04   8.03e-07
  2.5857e+04   5.89e-07
  2.6919e+04   4.18e-07
  2.8024e+04   2.84e-07
  2.9174e+04   1.91e-07
  3.0372e+04   1.21e-07
  3.1619e+04   7.18e-08
  3.2917e+04   4.11e-08
  3.4268e+04   2.13e-08
  3.5675e+04   9.99e-09
  3.7140e+04   4.22e-09
  3.8664e+04   1.50e-09
  4.0252e+04   4.38e-10
  4.1904e+04   1.01e-10
  4.3624e+04   1.65e-11
  4.5415e+04   1.78e-12
  4.7280e+04   1.10e-13
  4.9221e+04   3.19e-15
  5.1241e+04   3.44e-17
  5.3345e+04   9.51e-20
  5.5535e+04   4.02e-23
  5.7815e+04   1.30e-27
  6.0188e+04   1.10e-33
  6.2659e+04   5.19e-42
  6.5232e+04   8.15e-48
  6.7910e+04   7.31e-48
  7.0698e+04   6.53e-48
  7.3600e+04   5.85e-48
  7.6621e+04   5.22e-48
  7.9767e+04   4.63e-48
  8.3042e+04   4.06e-48
  8.6451e+04   3.54e-48
  9.0000e+04   3.07e-48
