#  E [MeV]   Flux [# cm^{-2} s^{-1}  MeV^{-1}]
  3.0000e+04   8.20e-23
  3.0696e+04   7.93e-23
  3.1408e+04   7.66e-23
  3.2137e+04   7.41e-23
  3.2883e+04   7.15e-23
  3.3646e+04   6.91e-23
  3.4426e+04   6.67e-23
  3.5225e+04   6.44e-23
  3.6042e+04   6.21e-23
  3.6878e+04   5.99e-23
  3.7734e+04   5.78e-23
  3.8609e+04   5.57e-23
  3.9505e+04   5.37e-23
  4.0422e+04   5.17e-23
  4.1360e+04   4.99e-23
  4.2319e+04   4.80e-23
  4.3301e+04   4.62e-23
  4.4306e+04   4.45e-23
  4.5334e+04   4.29e-23
  4.6386e+04   4.13e-23
  4.7462e+04   3.98e-23
  4.8563e+04   3.83e-23
  4.9690e+04   3.69e-23
  5.0843e+04   3.55e-23
  5.2022e+04   3.42e-23
  5.3229e+04   3.29e-23
  5.4464e+04   3.17e-23
  5.5728e+04   3.05e-23
  5.7021e+04   2.93e-23
  5.8344e+04   2.82e-23
  5.9697e+04   2.71e-23
  6.1083e+04   2.61e-23
  6.2500e+04   2.51e-23
  6.3950e+04   2.41e-23
  6.5434e+04   2.32e-23
  6.6952e+04   2.23e-23
  6.8505e+04   2.14e-23
  7.0095e+04   2.06e-23
  7.1721e+04   1.97e-23
  7.3385e+04   1.89e-23
  7.5088e+04   1.82e-23
  7.6830e+04   1.74e-23
  7.8612e+04   1.67e-23
  8.0436e+04   1.60e-23
  8.2302e+04   1.54e-23
  8.4212e+04   1.47e-23
  8.6166e+04   1.41e-23
  8.8165e+04   1.35e-23
  9.0210e+04   1.29e-23
  9.2304e+04   1.24e-23
  9.4445e+04   1.18e-23
  9.6636e+04   1.13e-23
  9.8878e+04   1.08e-23
  1.0117e+05   1.04e-23
  1.0352e+05   9.90e-24
  1.0592e+05   9.46e-24
  1.0838e+05   9.03e-24
  1.1089e+05   8.62e-24
  1.1347e+05   8.23e-24
  1.1610e+05   7.85e-24
  1.1879e+05   7.49e-24
  1.2155e+05   7.14e-24
  1.2437e+05   6.80e-24
  1.2725e+05   6.48e-24
  1.3021e+05   6.17e-24
  1.3323e+05   5.88e-24
  1.3632e+05   5.59e-24
  1.3948e+05   5.32e-24
  1.4272e+05   5.06e-24
  1.4603e+05   4.81e-24
  1.4942e+05   4.56e-24
  1.5288e+05   4.33e-24
  1.5643e+05   4.11e-24
  1.6006e+05   3.90e-24
  1.6377e+05   3.70e-24
  1.6757e+05   3.50e-24
  1.7146e+05   3.32e-24
  1.7544e+05   3.14e-24
  1.7951e+05   2.97e-24
  1.8368e+05   2.81e-24
  1.8794e+05   2.66e-24
  1.9230e+05   2.51e-24
  1.9676e+05   2.37e-24
  2.0132e+05   2.24e-24
  2.0600e+05   2.11e-24
  2.1078e+05   1.99e-24
  2.1567e+05   1.87e-24
  2.2067e+05   1.76e-24
  2.2579e+05   1.66e-24
  2.3103e+05   1.56e-24
  2.3639e+05   1.47e-24
  2.4187e+05   1.38e-24
  2.4748e+05   1.29e-24
  2.5323e+05   1.21e-24
  2.5910e+05   1.14e-24
  2.6511e+05   1.07e-24
  2.7126e+05   9.97e-25
  2.7756e+05   9.31e-25
  2.8400e+05   8.72e-25
  2.9059e+05   8.15e-25
  2.9733e+05   7.60e-25
  3.0423e+05   7.08e-25
  3.1129e+05   6.58e-25
  3.1851e+05   6.14e-25
  3.2590e+05   5.72e-25
  3.3346e+05   5.32e-25
  3.4120e+05   4.93e-25
  3.4911e+05   4.57e-25
  3.5721e+05   4.25e-25
  3.6550e+05   3.95e-25
  3.7398e+05   3.65e-25
  3.8266e+05   3.38e-25
  3.9154e+05   3.11e-25
  4.0062e+05   2.88e-25
  4.0991e+05   2.67e-25
  4.1943e+05   2.46e-25
  4.2916e+05   2.26e-25
  4.3911e+05   2.08e-25
  4.4930e+05   1.92e-25
  4.5973e+05   1.77e-25
  4.7039e+05   1.63e-25
  4.8131e+05   1.49e-25
  4.9247e+05   1.36e-25
  5.0390e+05   1.25e-25
  5.1559e+05   1.15e-25
  5.2755e+05   1.05e-25
  5.3979e+05   9.60e-26
  5.5232e+05   8.71e-26
  5.6513e+05   8.00e-26
  5.7824e+05   7.32e-26
  5.9166e+05   6.67e-26
  6.0539e+05   6.05e-26
  6.1943e+05   5.46e-26
  6.3381e+05   4.99e-26
  6.4851e+05   4.55e-26
  6.6356e+05   4.13e-26
  6.7895e+05   3.73e-26
  6.9471e+05   3.35e-26
  7.1082e+05   3.06e-26
  7.2732e+05   2.78e-26
  7.4419e+05   2.51e-26
  7.6146e+05   2.26e-26
  7.7912e+05   2.02e-26
  7.9720e+05   1.84e-26
  8.1570e+05   1.66e-26
  8.3462e+05   1.50e-26
  8.5399e+05   1.34e-26
  8.7380e+05   1.20e-26
  8.9407e+05   1.08e-26
  9.1482e+05   9.80e-27
  9.3604e+05   8.81e-27
  9.5776e+05   7.87e-27
  9.7998e+05   6.97e-27
  1.0027e+06   6.30e-27
  1.0260e+06   5.69e-27
  1.0498e+06   5.10e-27
  1.0741e+06   4.54e-27
  1.0991e+06   4.01e-27
  1.1246e+06   3.62e-27
  1.1507e+06   3.25e-27
  1.1774e+06   2.91e-27
  1.2047e+06   2.58e-27
  1.2326e+06   2.27e-27
  1.2612e+06   2.05e-27
  1.2905e+06   1.85e-27
  1.3204e+06   1.65e-27
  1.3511e+06   1.47e-27
  1.3824e+06   1.29e-27
  1.4145e+06   1.17e-27
  1.4473e+06   1.05e-27
  1.4809e+06   9.45e-28
  1.5152e+06   8.43e-28
  1.5504e+06   7.45e-28
  1.5864e+06   6.74e-28
  1.6232e+06   6.12e-28
  1.6608e+06   5.52e-28
  1.6994e+06   4.95e-28
  1.7388e+06   4.41e-28
  1.7791e+06   4.03e-28
  1.8204e+06   3.69e-28
  1.8626e+06   3.37e-28
  1.9059e+06   3.07e-28
  1.9501e+06   2.77e-28
  1.9953e+06   2.56e-28
  2.0416e+06   2.37e-28
  2.0890e+06   2.19e-28
  2.1375e+06   2.01e-28
  2.1870e+06   1.85e-28
  2.2378e+06   1.71e-28
  2.2897e+06   1.59e-28
  2.3428e+06   1.48e-28
  2.3972e+06   1.37e-28
  2.4528e+06   1.27e-28
  2.5097e+06   1.17e-28
  2.5680e+06   1.08e-28
  2.6275e+06   1.00e-28
  2.6885e+06   9.19e-29
  2.7509e+06   8.42e-29
  2.8147e+06   7.86e-29
  2.8800e+06   7.38e-29
