#  E [MeV]   Flux [# cm^{-2} s^{-1}  MeV^{-1}]
  3.0000e+04   5.35e-24
  3.1232e+04   5.12e-24
  3.2514e+04   4.90e-24
  3.3849e+04   4.68e-24
  3.5238e+04   4.48e-24
  3.6685e+04   4.29e-24
  3.8191e+04   4.10e-24
  3.9759e+04   3.92e-24
  4.1391e+04   3.75e-24
  4.3090e+04   3.59e-24
  4.4859e+04   3.43e-24
  4.6701e+04   3.28e-24
  4.8618e+04   3.14e-24
  5.0614e+04   3.00e-24
  5.2692e+04   2.87e-24
  5.4855e+04   2.74e-24
  5.7107e+04   2.62e-24
  5.9451e+04   2.50e-24
  6.1892e+04   2.39e-24
  6.4433e+04   2.29e-24
  6.7078e+04   2.19e-24
  6.9832e+04   2.09e-24
  7.2699e+04   2.00e-24
  7.5683e+04   1.91e-24
  7.8790e+04   1.82e-24
  8.2025e+04   1.74e-24
  8.5392e+04   1.66e-24
  8.8898e+04   1.59e-24
  9.2547e+04   1.52e-24
  9.6347e+04   1.45e-24
  1.0030e+05   1.39e-24
  1.0442e+05   1.32e-24
  1.0871e+05   1.26e-24
  1.1317e+05   1.21e-24
  1.1782e+05   1.15e-24
  1.2265e+05   1.10e-24
  1.2769e+05   1.05e-24
  1.3293e+05   1.00e-24
  1.3839e+05   9.54e-25
  1.4407e+05   9.10e-25
  1.4998e+05   8.68e-25
  1.5614e+05   8.28e-25
  1.6255e+05   7.89e-25
  1.6922e+05   7.52e-25
  1.7617e+05   7.17e-25
  1.8340e+05   6.83e-25
  1.9093e+05   6.50e-25
  1.9877e+05   6.19e-25
  2.0693e+05   5.90e-25
  2.1543e+05   5.61e-25
  2.2427e+05   5.34e-25
  2.3348e+05   5.08e-25
  2.4306e+05   4.83e-25
  2.5304e+05   4.60e-25
  2.6343e+05   4.37e-25
  2.7424e+05   4.15e-25
  2.8550e+05   3.95e-25
  2.9722e+05   3.75e-25
  3.0942e+05   3.56e-25
  3.2213e+05   3.38e-25
  3.3535e+05   3.20e-25
  3.4912e+05   3.04e-25
  3.6345e+05   2.88e-25
  3.7837e+05   2.73e-25
  3.9390e+05   2.58e-25
  4.1008e+05   2.44e-25
  4.2691e+05   2.31e-25
  4.4444e+05   2.19e-25
  4.6268e+05   2.07e-25
  4.8168e+05   1.96e-25
  5.0145e+05   1.85e-25
  5.2204e+05   1.74e-25
  5.4347e+05   1.65e-25
  5.6578e+05   1.55e-25
  5.8901e+05   1.46e-25
  6.1319e+05   1.38e-25
  6.3836e+05   1.30e-25
  6.6457e+05   1.22e-25
  6.9185e+05   1.15e-25
  7.2025e+05   1.08e-25
  7.4982e+05   1.02e-25
  7.8061e+05   9.54e-26
  8.1265e+05   8.96e-26
  8.4601e+05   8.40e-26
  8.8075e+05   7.88e-26
  9.1690e+05   7.39e-26
  9.5455e+05   6.92e-26
  9.9373e+05   6.48e-26
  1.0345e+06   6.06e-26
  1.0770e+06   5.67e-26
  1.1212e+06   5.30e-26
  1.1672e+06   4.95e-26
  1.2152e+06   4.62e-26
  1.2650e+06   4.31e-26
  1.3170e+06   4.02e-26
  1.3711e+06   3.75e-26
  1.4273e+06   3.49e-26
  1.4859e+06   3.26e-26
  1.5469e+06   3.03e-26
  1.6104e+06   2.82e-26
  1.6766e+06   2.62e-26
  1.7454e+06   2.44e-26
  1.8170e+06   2.26e-26
  1.8916e+06   2.10e-26
  1.9693e+06   1.95e-26
  2.0501e+06   1.81e-26
  2.1343e+06   1.68e-26
  2.2219e+06   1.55e-26
  2.3131e+06   1.44e-26
  2.4081e+06   1.33e-26
  2.5070e+06   1.22e-26
  2.6099e+06   1.13e-26
  2.7170e+06   1.04e-26
  2.8286e+06   9.61e-27
  2.9447e+06   8.85e-27
  3.0656e+06   8.14e-27
  3.1914e+06   7.49e-27
  3.3225e+06   6.88e-27
  3.4589e+06   6.31e-27
  3.6008e+06   5.79e-27
  3.7487e+06   5.31e-27
  3.9026e+06   4.86e-27
  4.0628e+06   4.44e-27
  4.2296e+06   4.06e-27
  4.4032e+06   3.71e-27
  4.5840e+06   3.38e-27
  4.7722e+06   3.08e-27
  4.9681e+06   2.80e-27
  5.1720e+06   2.54e-27
  5.3844e+06   2.31e-27
  5.6054e+06   2.09e-27
  5.8355e+06   1.90e-27
  6.0751e+06   1.71e-27
  6.3245e+06   1.55e-27
  6.5841e+06   1.40e-27
  6.8544e+06   1.26e-27
  7.1358e+06   1.13e-27
  7.4288e+06   1.02e-27
  7.7338e+06   9.12e-28
  8.0513e+06   8.17e-28
  8.3818e+06   7.32e-28
  8.7259e+06   6.53e-28
  9.0841e+06   5.82e-28
  9.4571e+06   5.19e-28
  9.8453e+06   4.60e-28
  1.0249e+07   4.08e-28
  1.0670e+07   3.61e-28
  1.1108e+07   3.18e-28
  1.1564e+07   2.81e-28
  1.2039e+07   2.47e-28
  1.2533e+07   2.16e-28
  1.3048e+07   1.89e-28
  1.3584e+07   1.65e-28
  1.4141e+07   1.43e-28
  1.4722e+07   1.25e-28
  1.5326e+07   1.08e-28
  1.5955e+07   9.24e-29
  1.6610e+07   7.95e-29
  1.7292e+07   6.78e-29
  1.8002e+07   5.74e-29
  1.8741e+07   4.87e-29
  1.9511e+07   4.07e-29
  2.0312e+07   3.39e-29
  2.1145e+07   2.81e-29
  2.2013e+07   2.29e-29
  2.2917e+07   1.86e-29
  2.3858e+07   1.49e-29
  2.4837e+07   1.17e-29
  2.5857e+07   9.14e-30
  2.6919e+07   6.98e-30
  2.8024e+07   5.16e-30
  2.9174e+07   3.78e-30
  3.0372e+07   2.66e-30
  3.1619e+07   1.78e-30
  3.2917e+07   1.16e-30
  3.4268e+07   7.07e-31
  3.5675e+07   3.98e-31
  3.7140e+07   2.08e-31
  3.8664e+07   9.57e-32
  4.0252e+07   3.81e-32
  4.1904e+07   1.28e-32
  4.3624e+07   3.35e-33
  4.5415e+07   6.49e-34
  4.7280e+07   8.47e-35
  4.9221e+07   6.39e-36
  5.1241e+07   2.38e-37
  5.3345e+07   3.38e-39
  5.5535e+07   1.25e-41
  5.7815e+07   7.41e-45
  6.0188e+07   3.29e-49
  6.2659e+07   3.59e-55
  6.5232e+07   1.95e-63
  6.7910e+07   6.71e-71
  7.0698e+07   5.80e-71
  7.3600e+07   5.17e-71
  7.6621e+07   4.58e-71
  7.9767e+07   4.06e-71
  8.3042e+07   3.66e-71
  8.6451e+07   3.29e-71
  9.0000e+07   2.97e-71
