#  E [MeV]   Flux [# cm^{-2} s^{-1}  MeV^{-1}]
  3.0000e+04   8.37e-24
  3.0782e+04   8.09e-24
  3.1585e+04   7.83e-24
  3.2409e+04   7.57e-24
  3.3255e+04   7.32e-24
  3.4122e+04   7.08e-24
  3.5012e+04   6.84e-24
  3.5925e+04   6.61e-24
  3.6862e+04   6.39e-24
  3.7824e+04   6.17e-24
  3.8810e+04   5.96e-24
  3.9822e+04   5.75e-24
  4.0861e+04   5.55e-24
  4.1927e+04   5.36e-24
  4.3021e+04   5.17e-24
  4.4143e+04   4.99e-24
  4.5294e+04   4.81e-24
  4.6475e+04   4.64e-24
  4.7688e+04   4.47e-24
  4.8931e+04   4.31e-24
  5.0208e+04   4.15e-24
  5.1517e+04   4.00e-24
  5.2861e+04   3.85e-24
  5.4240e+04   3.71e-24
  5.5654e+04   3.57e-24
  5.7106e+04   3.44e-24
  5.8596e+04   3.31e-24
  6.0124e+04   3.18e-24
  6.1692e+04   3.06e-24
  6.3301e+04   2.94e-24
  6.4952e+04   2.83e-24
  6.6647e+04   2.72e-24
  6.8385e+04   2.61e-24
  7.0169e+04   2.51e-24
  7.1999e+04   2.41e-24
  7.3877e+04   2.31e-24
  7.5804e+04   2.22e-24
  7.7781e+04   2.13e-24
  7.9810e+04   2.04e-24
  8.1891e+04   1.96e-24
  8.4027e+04   1.88e-24
  8.6219e+04   1.80e-24
  8.8468e+04   1.73e-24
  9.0775e+04   1.65e-24
  9.3143e+04   1.58e-24
  9.5572e+04   1.52e-24
  9.8065e+04   1.45e-24
  1.0062e+05   1.39e-24
  1.0325e+05   1.33e-24
  1.0594e+05   1.27e-24
  1.0870e+05   1.22e-24
  1.1154e+05   1.17e-24
  1.1445e+05   1.11e-24
  1.1743e+05   1.06e-24
  1.2050e+05   1.02e-24
  1.2364e+05   9.71e-25
  1.2686e+05   9.27e-25
  1.3017e+05   8.84e-25
  1.3357e+05   8.43e-25
  1.3705e+05   8.04e-25
  1.4063e+05   7.67e-25
  1.4429e+05   7.31e-25
  1.4806e+05   6.96e-25
  1.5192e+05   6.63e-25
  1.5588e+05   6.31e-25
  1.5995e+05   6.01e-25
  1.6412e+05   5.71e-25
  1.6840e+05   5.43e-25
  1.7279e+05   5.16e-25
  1.7730e+05   4.91e-25
  1.8193e+05   4.66e-25
  1.8667e+05   4.42e-25
  1.9154e+05   4.20e-25
  1.9654e+05   3.98e-25
  2.0166e+05   3.78e-25
  2.0692e+05   3.58e-25
  2.1232e+05   3.39e-25
  2.1786e+05   3.21e-25
  2.2354e+05   3.04e-25
  2.2937e+05   2.88e-25
  2.3535e+05   2.72e-25
  2.4149e+05   2.57e-25
  2.4779e+05   2.43e-25
  2.5425e+05   2.29e-25
  2.6088e+05   2.16e-25
  2.6769e+05   2.04e-25
  2.7467e+05   1.92e-25
  2.8184e+05   1.81e-25
  2.8919e+05   1.70e-25
  2.9673e+05   1.60e-25
  3.0447e+05   1.51e-25
  3.1241e+05   1.42e-25
  3.2056e+05   1.33e-25
  3.2892e+05   1.25e-25
  3.3750e+05   1.17e-25
  3.4630e+05   1.10e-25
  3.5533e+05   1.03e-25
  3.6460e+05   9.63e-26
  3.7411e+05   9.00e-26
  3.8387e+05   8.42e-26
  3.9388e+05   7.87e-26
  4.0416e+05   7.35e-26
  4.1470e+05   6.86e-26
  4.2551e+05   6.39e-26
  4.3661e+05   5.96e-26
  4.4800e+05   5.56e-26
  4.5969e+05   5.17e-26
  4.7168e+05   4.80e-26
  4.8398e+05   4.46e-26
  4.9660e+05   4.15e-26
  5.0956e+05   3.85e-26
  5.2285e+05   3.56e-26
  5.3648e+05   3.30e-26
  5.5048e+05   3.06e-26
  5.6483e+05   2.83e-26
  5.7957e+05   2.62e-26
  5.9468e+05   2.41e-26
  6.1020e+05   2.23e-26
  6.2611e+05   2.06e-26
  6.4244e+05   1.90e-26
  6.5920e+05   1.75e-26
  6.7639e+05   1.61e-26
  6.9403e+05   1.49e-26
  7.1214e+05   1.37e-26
  7.3071e+05   1.26e-26
  7.4977e+05   1.15e-26
  7.6933e+05   1.06e-26
  7.8939e+05   9.73e-27
  8.0998e+05   8.92e-27
  8.3111e+05   8.16e-27
  8.5279e+05   7.47e-27
  8.7503e+05   6.85e-27
  8.9785e+05   6.27e-27
  9.2127e+05   5.73e-27
  9.4530e+05   5.22e-27
  9.6996e+05   4.78e-27
  9.9526e+05   4.36e-27
  1.0212e+06   3.97e-27
  1.0479e+06   3.61e-27
  1.0752e+06   3.29e-27
  1.1032e+06   3.00e-27
  1.1320e+06   2.73e-27
  1.1615e+06   2.47e-27
  1.1918e+06   2.23e-27
  1.2229e+06   2.04e-27
  1.2548e+06   1.85e-27
  1.2875e+06   1.67e-27
  1.3211e+06   1.51e-27
  1.3556e+06   1.37e-27
  1.3909e+06   1.24e-27
  1.4272e+06   1.12e-27
  1.4644e+06   1.01e-27
  1.5026e+06   9.07e-28
  1.5418e+06   8.22e-28
  1.5820e+06   7.42e-28
  1.6233e+06   6.67e-28
  1.6657e+06   5.96e-28
  1.7091e+06   5.36e-28
  1.7537e+06   4.84e-28
  1.7994e+06   4.34e-28
  1.8464e+06   3.87e-28
  1.8945e+06   3.44e-28
  1.9439e+06   3.10e-28
  1.9946e+06   2.77e-28
  2.0467e+06   2.46e-28
  2.1000e+06   2.17e-28
  2.1548e+06   1.94e-28
  2.2110e+06   1.73e-28
  2.2687e+06   1.53e-28
  2.3279e+06   1.35e-28
  2.3886e+06   1.18e-28
  2.4509e+06   1.06e-28
  2.5148e+06   9.36e-29
  2.5804e+06   8.21e-29
  2.6477e+06   7.13e-29
  2.7168e+06   6.31e-29
  2.7876e+06   5.59e-29
  2.8603e+06   4.90e-29
  2.9349e+06   4.25e-29
  3.0115e+06   3.69e-29
  3.0900e+06   3.26e-29
  3.1706e+06   2.85e-29
  3.2533e+06   2.47e-29
  3.3382e+06   2.11e-29
  3.4253e+06   1.85e-29
  3.5146e+06   1.61e-29
  3.6063e+06   1.39e-29
  3.7003e+06   1.19e-29
  3.7969e+06   1.01e-29
  3.8959e+06   8.78e-30
  3.9975e+06   7.53e-30
  4.1018e+06   6.35e-30
  4.2088e+06   5.24e-30
  4.3185e+06   4.47e-30
  4.4312e+06   3.76e-30
  4.5467e+06   3.10e-30
  4.6653e+06   2.48e-30
  4.7870e+06   2.01e-30
  4.9119e+06   1.68e-30
  5.0400e+06   1.37e-30
