#  E [MeV]   Flux [# cm^{-2} s^{-1}  MeV^{-1}]
  3.0000e+04   9.61e-20
  3.0675e+04   9.31e-20
  3.1366e+04   9.01e-20
  3.2072e+04   8.71e-20
  3.2794e+04   8.43e-20
  3.3533e+04   8.15e-20
  3.4288e+04   7.89e-20
  3.5060e+04   7.63e-20
  3.5849e+04   7.37e-20
  3.6656e+04   7.13e-20
  3.7482e+04   6.89e-20
  3.8326e+04   6.66e-20
  3.9188e+04   6.43e-20
  4.0071e+04   6.21e-20
  4.0973e+04   6.00e-20
  4.1896e+04   5.80e-20
  4.2839e+04   5.60e-20
  4.3803e+04   5.40e-20
  4.4790e+04   5.22e-20
  4.5798e+04   5.03e-20
  4.6829e+04   4.86e-20
  4.7884e+04   4.69e-20
  4.8962e+04   4.52e-20
  5.0064e+04   4.36e-20
  5.1191e+04   4.20e-20
  5.2344e+04   4.05e-20
  5.3522e+04   3.91e-20
  5.4727e+04   3.77e-20
  5.5960e+04   3.63e-20
  5.7219e+04   3.50e-20
  5.8508e+04   3.37e-20
  5.9825e+04   3.24e-20
  6.1172e+04   3.12e-20
  6.2549e+04   3.01e-20
  6.3958e+04   2.89e-20
  6.5398e+04   2.78e-20
  6.6870e+04   2.68e-20
  6.8376e+04   2.57e-20
  6.9915e+04   2.48e-20
  7.1489e+04   2.38e-20
  7.3099e+04   2.29e-20
  7.4745e+04   2.20e-20
  7.6428e+04   2.11e-20
  7.8148e+04   2.03e-20
  7.9908e+04   1.95e-20
  8.1707e+04   1.87e-20
  8.3547e+04   1.80e-20
  8.5428e+04   1.73e-20
  8.7351e+04   1.66e-20
  8.9318e+04   1.59e-20
  9.1329e+04   1.53e-20
  9.3385e+04   1.46e-20
  9.5488e+04   1.40e-20
  9.7638e+04   1.34e-20
  9.9836e+04   1.29e-20
  1.0208e+05   1.24e-20
  1.0438e+05   1.18e-20
  1.0673e+05   1.13e-20
  1.0914e+05   1.09e-20
  1.1159e+05   1.04e-20
  1.1411e+05   9.95e-21
  1.1667e+05   9.52e-21
  1.1930e+05   9.10e-21
  1.2199e+05   8.71e-21
  1.2473e+05   8.33e-21
  1.2754e+05   7.96e-21
  1.3041e+05   7.60e-21
  1.3335e+05   7.26e-21
  1.3635e+05   6.93e-21
  1.3942e+05   6.62e-21
  1.4256e+05   6.32e-21
  1.4577e+05   6.03e-21
  1.4905e+05   5.75e-21
  1.5241e+05   5.49e-21
  1.5584e+05   5.23e-21
  1.5935e+05   4.99e-21
  1.6294e+05   4.75e-21
  1.6661e+05   4.53e-21
  1.7036e+05   4.31e-21
  1.7419e+05   4.11e-21
  1.7812e+05   3.91e-21
  1.8213e+05   3.72e-21
  1.8623e+05   3.54e-21
  1.9042e+05   3.36e-21
  1.9471e+05   3.20e-21
  1.9909e+05   3.04e-21
  2.0357e+05   2.89e-21
  2.0816e+05   2.74e-21
  2.1284e+05   2.60e-21
  2.1763e+05   2.47e-21
  2.2253e+05   2.34e-21
  2.2755e+05   2.22e-21
  2.3267e+05   2.10e-21
  2.3791e+05   1.99e-21
  2.4326e+05   1.88e-21
  2.4874e+05   1.79e-21
  2.5434e+05   1.69e-21
  2.6007e+05   1.60e-21
  2.6592e+05   1.51e-21
  2.7191e+05   1.42e-21
  2.7803e+05   1.35e-21
  2.8429e+05   1.27e-21
  2.9069e+05   1.20e-21
  2.9724e+05   1.13e-21
  3.0393e+05   1.06e-21
  3.1077e+05   1.00e-21
  3.1777e+05   9.47e-22
  3.2493e+05   8.91e-22
  3.3224e+05   8.37e-22
  3.3972e+05   7.86e-22
  3.4737e+05   7.40e-22
  3.5519e+05   6.96e-22
  3.6319e+05   6.54e-22
  3.7137e+05   6.13e-22
  3.7973e+05   5.74e-22
  3.8828e+05   5.39e-22
  3.9702e+05   5.06e-22
  4.0596e+05   4.74e-22
  4.1510e+05   4.43e-22
  4.2444e+05   4.14e-22
  4.3400e+05   3.88e-22
  4.4377e+05   3.63e-22
  4.5376e+05   3.39e-22
  4.6398e+05   3.17e-22
  4.7443e+05   2.95e-22
  4.8511e+05   2.75e-22
  4.9603e+05   2.57e-22
  5.0720e+05   2.40e-22
  5.1862e+05   2.23e-22
  5.3030e+05   2.07e-22
  5.4224e+05   1.92e-22
  5.5444e+05   1.79e-22
  5.6693e+05   1.67e-22
  5.7969e+05   1.55e-22
  5.9274e+05   1.43e-22
  6.0609e+05   1.33e-22
  6.1974e+05   1.24e-22
  6.3369e+05   1.15e-22
  6.4796e+05   1.06e-22
  6.6255e+05   9.84e-23
  6.7746e+05   9.09e-23
  6.9272e+05   8.45e-23
  7.0831e+05   7.84e-23
  7.2426e+05   7.26e-23
  7.4057e+05   6.71e-23
  7.5724e+05   6.18e-23
  7.7429e+05   5.74e-23
  7.9172e+05   5.33e-23
  8.0955e+05   4.93e-23
  8.2778e+05   4.56e-23
  8.4641e+05   4.20e-23
  8.6547e+05   3.89e-23
  8.8496e+05   3.62e-23
  9.0488e+05   3.35e-23
  9.2526e+05   3.10e-23
  9.4609e+05   2.86e-23
  9.6739e+05   2.66e-23
  9.8917e+05   2.48e-23
  1.0114e+06   2.31e-23
  1.0342e+06   2.14e-23
  1.0575e+06   1.99e-23
  1.0813e+06   1.85e-23
  1.1057e+06   1.74e-23
  1.1305e+06   1.63e-23
  1.1560e+06   1.52e-23
  1.1820e+06   1.42e-23
  1.2086e+06   1.33e-23
  1.2359e+06   1.26e-23
  1.2637e+06   1.20e-23
  1.2921e+06   1.13e-23
  1.3212e+06   1.07e-23
  1.3510e+06   1.01e-23
  1.3814e+06   9.66e-24
  1.4125e+06   9.24e-24
  1.4443e+06   8.84e-24
  1.4768e+06   8.46e-24
  1.5101e+06   8.09e-24
  1.5441e+06   7.87e-24
  1.5788e+06   7.67e-24
  1.6144e+06   7.49e-24
  1.6507e+06   7.30e-24
  1.6879e+06   7.12e-24
  1.7259e+06   7.06e-24
  1.7648e+06   7.04e-24
  1.8045e+06   7.01e-24
  1.8451e+06   6.98e-24
  1.8867e+06   6.95e-24
  1.9291e+06   7.07e-24
  1.9726e+06   7.30e-24
  2.0170e+06   7.51e-24
  2.0624e+06   7.71e-24
  2.1088e+06   7.89e-24
  2.1563e+06   8.11e-24
  2.2049e+06   8.40e-24
  2.2545e+06   8.68e-24
  2.3053e+06   8.93e-24
  2.3572e+06   9.17e-24
  2.4102e+06   8.93e-24
  2.4645e+06   6.96e-24
  2.5200e+06   5.10e-24
