#  E [MeV]   Flux [# cm^{-2} s^{-1}  MeV^{-1}]
  3.0000e+04   1.20e-17
  3.0675e+04   1.16e-17
  3.1366e+04   1.12e-17
  3.2072e+04   1.09e-17
  3.2794e+04   1.05e-17
  3.3533e+04   1.01e-17
  3.4288e+04   9.77e-18
  3.5060e+04   9.43e-18
  3.5849e+04   9.10e-18
  3.6656e+04   8.78e-18
  3.7482e+04   8.47e-18
  3.8326e+04   8.17e-18
  3.9188e+04   7.87e-18
  4.0071e+04   7.59e-18
  4.0973e+04   7.32e-18
  4.1896e+04   7.06e-18
  4.2839e+04   6.81e-18
  4.3803e+04   6.56e-18
  4.4790e+04   6.33e-18
  4.5798e+04   6.10e-18
  4.6829e+04   5.88e-18
  4.7884e+04   5.67e-18
  4.8962e+04   5.46e-18
  5.0064e+04   5.26e-18
  5.1191e+04   5.07e-18
  5.2344e+04   4.89e-18
  5.3522e+04   4.71e-18
  5.4727e+04   4.53e-18
  5.5960e+04   4.36e-18
  5.7219e+04   4.20e-18
  5.8508e+04   4.04e-18
  5.9825e+04   3.89e-18
  6.1172e+04   3.74e-18
  6.2549e+04   3.60e-18
  6.3958e+04   3.46e-18
  6.5398e+04   3.33e-18
  6.6870e+04   3.20e-18
  6.8376e+04   3.07e-18
  6.9915e+04   2.95e-18
  7.1489e+04   2.83e-18
  7.3099e+04   2.72e-18
  7.4745e+04   2.61e-18
  7.6428e+04   2.51e-18
  7.8148e+04   2.40e-18
  7.9908e+04   2.31e-18
  8.1707e+04   2.21e-18
  8.3547e+04   2.12e-18
  8.5428e+04   2.03e-18
  8.7351e+04   1.95e-18
  8.9318e+04   1.86e-18
  9.1329e+04   1.78e-18
  9.3385e+04   1.71e-18
  9.5488e+04   1.63e-18
  9.7638e+04   1.56e-18
  9.9836e+04   1.50e-18
  1.0208e+05   1.43e-18
  1.0438e+05   1.37e-18
  1.0673e+05   1.31e-18
  1.0914e+05   1.25e-18
  1.1159e+05   1.19e-18
  1.1411e+05   1.14e-18
  1.1667e+05   1.09e-18
  1.1930e+05   1.04e-18
  1.2199e+05   9.87e-19
  1.2473e+05   9.41e-19
  1.2754e+05   8.97e-19
  1.3041e+05   8.54e-19
  1.3335e+05   8.13e-19
  1.3635e+05   7.73e-19
  1.3942e+05   7.35e-19
  1.4256e+05   6.99e-19
  1.4577e+05   6.65e-19
  1.4905e+05   6.32e-19
  1.5241e+05   6.00e-19
  1.5584e+05   5.69e-19
  1.5935e+05   5.40e-19
  1.6294e+05   5.12e-19
  1.6661e+05   4.86e-19
  1.7036e+05   4.60e-19
  1.7419e+05   4.36e-19
  1.7812e+05   4.12e-19
  1.8213e+05   3.91e-19
  1.8623e+05   3.69e-19
  1.9042e+05   3.49e-19
  1.9471e+05   3.30e-19
  1.9909e+05   3.11e-19
  2.0357e+05   2.94e-19
  2.0816e+05   2.78e-19
  2.1284e+05   2.62e-19
  2.1763e+05   2.46e-19
  2.2253e+05   2.32e-19
  2.2755e+05   2.18e-19
  2.3267e+05   2.06e-19
  2.3791e+05   1.93e-19
  2.4326e+05   1.82e-19
  2.4874e+05   1.70e-19
  2.5434e+05   1.60e-19
  2.6007e+05   1.50e-19
  2.6592e+05   1.41e-19
  2.7191e+05   1.32e-19
  2.7803e+05   1.23e-19
  2.8429e+05   1.15e-19
  2.9069e+05   1.08e-19
  2.9724e+05   1.01e-19
  3.0393e+05   9.41e-20
  3.1077e+05   8.76e-20
  3.1777e+05   8.17e-20
  3.2493e+05   7.63e-20
  3.3224e+05   7.12e-20
  3.3972e+05   6.62e-20
  3.4737e+05   6.14e-20
  3.5519e+05   5.70e-20
  3.6319e+05   5.31e-20
  3.7137e+05   4.94e-20
  3.7973e+05   4.58e-20
  3.8828e+05   4.23e-20
  3.9702e+05   3.91e-20
  4.0596e+05   3.63e-20
  4.1510e+05   3.37e-20
  4.2444e+05   3.11e-20
  4.3400e+05   2.87e-20
  4.4377e+05   2.64e-20
  4.5376e+05   2.44e-20
  4.6398e+05   2.26e-20
  4.7443e+05   2.08e-20
  4.8511e+05   1.91e-20
  4.9603e+05   1.75e-20
  5.0720e+05   1.62e-20
  5.1862e+05   1.49e-20
  5.3030e+05   1.37e-20
  5.4224e+05   1.25e-20
  5.5444e+05   1.14e-20
  5.6693e+05   1.05e-20
  5.7969e+05   9.61e-21
  5.9274e+05   8.79e-21
  6.0609e+05   8.01e-21
  6.1974e+05   7.26e-21
  6.3369e+05   6.64e-21
  6.4796e+05   6.09e-21
  6.6255e+05   5.56e-21
  6.7746e+05   5.05e-21
  6.9272e+05   4.56e-21
  7.0831e+05   4.14e-21
  7.2426e+05   3.79e-21
  7.4057e+05   3.45e-21
  7.5724e+05   3.13e-21
  7.7429e+05   2.82e-21
  7.9172e+05   2.54e-21
  8.0955e+05   2.32e-21
  8.2778e+05   2.11e-21
  8.4641e+05   1.91e-21
  8.6547e+05   1.71e-21
  8.8496e+05   1.53e-21
  9.0488e+05   1.40e-21
  9.2526e+05   1.27e-21
  9.4609e+05   1.15e-21
  9.6739e+05   1.03e-21
  9.8917e+05   9.12e-22
  1.0114e+06   8.30e-22
  1.0342e+06   7.52e-22
  1.0575e+06   6.77e-22
  1.0813e+06   6.05e-22
  1.1057e+06   5.36e-22
  1.1305e+06   4.85e-22
  1.1560e+06   4.40e-22
  1.1820e+06   3.97e-22
  1.2086e+06   3.55e-22
  1.2359e+06   3.15e-22
  1.2637e+06   2.84e-22
  1.2921e+06   2.58e-22
  1.3212e+06   2.33e-22
  1.3510e+06   2.09e-22
  1.3814e+06   1.87e-22
  1.4125e+06   1.68e-22
  1.4443e+06   1.53e-22
  1.4768e+06   1.39e-22
  1.5101e+06   1.26e-22
  1.5441e+06   1.13e-22
  1.5788e+06   1.02e-22
  1.6144e+06   9.41e-23
  1.6507e+06   8.66e-23
  1.6879e+06   7.93e-23
  1.7259e+06   7.23e-23
  1.7648e+06   6.58e-23
  1.8045e+06   6.13e-23
  1.8451e+06   5.69e-23
  1.8867e+06   5.26e-23
  1.9291e+06   4.86e-23
  1.9726e+06   4.47e-23
  2.0170e+06   4.18e-23
  2.0624e+06   3.90e-23
  2.1088e+06   3.63e-23
  2.1563e+06   3.38e-23
  2.2049e+06   3.13e-23
  2.2545e+06   2.92e-23
  2.3053e+06   2.71e-23
  2.3572e+06   2.52e-23
  2.4102e+06   2.33e-23
  2.4645e+06   2.15e-23
  2.5200e+06   2.01e-23
