#  E [MeV]   Flux [# cm^{-2} s^{-1}  MeV^{-1}]
  3.0000e+04   1.01e-19
  3.0675e+04   9.75e-20
  3.1366e+04   9.39e-20
  3.2072e+04   9.05e-20
  3.2794e+04   8.72e-20
  3.3533e+04   8.40e-20
  3.4288e+04   8.09e-20
  3.5060e+04   7.79e-20
  3.5849e+04   7.50e-20
  3.6656e+04   7.22e-20
  3.7482e+04   6.95e-20
  3.8326e+04   6.69e-20
  3.9188e+04   6.44e-20
  4.0071e+04   6.19e-20
  4.0973e+04   5.96e-20
  4.1896e+04   5.73e-20
  4.2839e+04   5.51e-20
  4.3803e+04   5.30e-20
  4.4790e+04   5.09e-20
  4.5798e+04   4.89e-20
  4.6829e+04   4.70e-20
  4.7884e+04   4.51e-20
  4.8962e+04   4.33e-20
  5.0064e+04   4.16e-20
  5.1191e+04   3.99e-20
  5.2344e+04   3.83e-20
  5.3522e+04   3.67e-20
  5.4727e+04   3.53e-20
  5.5960e+04   3.38e-20
  5.7219e+04   3.24e-20
  5.8508e+04   3.11e-20
  5.9825e+04   2.97e-20
  6.1172e+04   2.85e-20
  6.2549e+04   2.73e-20
  6.3958e+04   2.61e-20
  6.5398e+04   2.50e-20
  6.6870e+04   2.39e-20
  6.8376e+04   2.29e-20
  6.9915e+04   2.19e-20
  7.1489e+04   2.09e-20
  7.3099e+04   2.00e-20
  7.4745e+04   1.91e-20
  7.6428e+04   1.82e-20
  7.8148e+04   1.74e-20
  7.9908e+04   1.66e-20
  8.1707e+04   1.58e-20
  8.3547e+04   1.51e-20
  8.5428e+04   1.44e-20
  8.7351e+04   1.37e-20
  8.9318e+04   1.31e-20
  9.1329e+04   1.25e-20
  9.3385e+04   1.19e-20
  9.5488e+04   1.13e-20
  9.7638e+04   1.08e-20
  9.9836e+04   1.02e-20
  1.0208e+05   9.74e-21
  1.0438e+05   9.25e-21
  1.0673e+05   8.79e-21
  1.0914e+05   8.36e-21
  1.1159e+05   7.94e-21
  1.1411e+05   7.54e-21
  1.1667e+05   7.15e-21
  1.1930e+05   6.78e-21
  1.2199e+05   6.43e-21
  1.2473e+05   6.10e-21
  1.2754e+05   5.77e-21
  1.3041e+05   5.46e-21
  1.3335e+05   5.16e-21
  1.3635e+05   4.89e-21
  1.3942e+05   4.63e-21
  1.4256e+05   4.37e-21
  1.4577e+05   4.13e-21
  1.4905e+05   3.89e-21
  1.5241e+05   3.68e-21
  1.5584e+05   3.47e-21
  1.5935e+05   3.28e-21
  1.6294e+05   3.09e-21
  1.6661e+05   2.90e-21
  1.7036e+05   2.74e-21
  1.7419e+05   2.58e-21
  1.7812e+05   2.43e-21
  1.8213e+05   2.28e-21
  1.8623e+05   2.14e-21
  1.9042e+05   2.01e-21
  1.9471e+05   1.89e-21
  1.9909e+05   1.77e-21
  2.0357e+05   1.66e-21
  2.0816e+05   1.56e-21
  2.1284e+05   1.46e-21
  2.1763e+05   1.37e-21
  2.2253e+05   1.28e-21
  2.2755e+05   1.20e-21
  2.3267e+05   1.12e-21
  2.3791e+05   1.04e-21
  2.4326e+05   9.75e-22
  2.4874e+05   9.11e-22
  2.5434e+05   8.49e-22
  2.6007e+05   7.90e-22
  2.6592e+05   7.33e-22
  2.7191e+05   6.84e-22
  2.7803e+05   6.38e-22
  2.8429e+05   5.93e-22
  2.9069e+05   5.49e-22
  2.9724e+05   5.08e-22
  3.0393e+05   4.73e-22
  3.1077e+05   4.39e-22
  3.1777e+05   4.07e-22
  3.2493e+05   3.76e-22
  3.3224e+05   3.47e-22
  3.3972e+05   3.21e-22
  3.4737e+05   2.98e-22
  3.5519e+05   2.75e-22
  3.6319e+05   2.53e-22
  3.7137e+05   2.33e-22
  3.7973e+05   2.15e-22
  3.8828e+05   1.98e-22
  3.9702e+05   1.83e-22
  4.0596e+05   1.68e-22
  4.1510e+05   1.54e-22
  4.2444e+05   1.41e-22
  4.3400e+05   1.30e-22
  4.4377e+05   1.20e-22
  4.5376e+05   1.10e-22
  4.6398e+05   1.00e-22
  4.7443e+05   9.12e-23
  4.8511e+05   8.39e-23
  4.9603e+05   7.69e-23
  5.0720e+05   7.02e-23
  5.1862e+05   6.38e-23
  5.3030e+05   5.78e-23
  5.4224e+05   5.31e-23
  5.5444e+05   4.85e-23
  5.6693e+05   4.42e-23
  5.7969e+05   4.01e-23
  5.9274e+05   3.63e-23
  6.0609e+05   3.31e-23
  6.1974e+05   3.03e-23
  6.3369e+05   2.75e-23
  6.4796e+05   2.49e-23
  6.6255e+05   2.25e-23
  6.7746e+05   2.04e-23
  6.9272e+05   1.86e-23
  7.0831e+05   1.69e-23
  7.2426e+05   1.53e-23
  7.4057e+05   1.38e-23
  7.5724e+05   1.25e-23
  7.7429e+05   1.14e-23
  7.9172e+05   1.03e-23
  8.0955e+05   9.35e-24
  8.2778e+05   8.41e-24
  8.4641e+05   7.59e-24
  8.6547e+05   6.93e-24
  8.8496e+05   6.30e-24
  9.0488e+05   5.70e-24
  9.2526e+05   5.14e-24
  9.4609e+05   4.62e-24
  9.6739e+05   4.23e-24
  9.8917e+05   3.86e-24
  1.0114e+06   3.51e-24
  1.0342e+06   3.17e-24
  1.0575e+06   2.86e-24
  1.0813e+06   2.63e-24
  1.1057e+06   2.41e-24
  1.1305e+06   2.20e-24
  1.1560e+06   2.00e-24
  1.1820e+06   1.82e-24
  1.2086e+06   1.67e-24
  1.2359e+06   1.54e-24
  1.2637e+06   1.42e-24
  1.2921e+06   1.30e-24
  1.3212e+06   1.19e-24
  1.3510e+06   1.10e-24
  1.3814e+06   1.02e-24
  1.4125e+06   9.39e-25
  1.4443e+06   8.66e-25
  1.4768e+06   7.96e-25
  1.5101e+06   7.38e-25
  1.5441e+06   6.88e-25
  1.5788e+06   6.40e-25
  1.6144e+06   5.95e-25
  1.6507e+06   5.52e-25
  1.6879e+06   5.13e-25
  1.7259e+06   4.79e-25
  1.7648e+06   4.48e-25
  1.8045e+06   4.18e-25
  1.8451e+06   3.89e-25
  1.8867e+06   3.62e-25
  1.9291e+06   3.38e-25
  1.9726e+06   3.16e-25
  2.0170e+06   2.94e-25
  2.0624e+06   2.73e-25
  2.1088e+06   2.54e-25
  2.1563e+06   2.36e-25
  2.2049e+06   2.19e-25
  2.2545e+06   2.02e-25
  2.3053e+06   1.86e-25
  2.3572e+06   1.71e-25
  2.4102e+06   1.61e-25
  2.4645e+06   1.51e-25
  2.5200e+06   1.42e-25
