#  E [MeV]   Flux [# cm^{-2} s^{-1}  MeV^{-1}]
  3.0000e+04   6.86e-25
  3.1141e+04   6.59e-25
  3.2326e+04   6.32e-25
  3.3556e+04   6.07e-25
  3.4832e+04   5.83e-25
  3.6157e+04   5.60e-25
  3.7533e+04   5.37e-25
  3.8961e+04   5.16e-25
  4.0443e+04   4.95e-25
  4.1982e+04   4.75e-25
  4.3579e+04   4.56e-25
  4.5237e+04   4.37e-25
  4.6958e+04   4.20e-25
  4.8744e+04   4.03e-25
  5.0598e+04   3.86e-25
  5.2523e+04   3.70e-25
  5.4521e+04   3.55e-25
  5.6596e+04   3.41e-25
  5.8749e+04   3.27e-25
  6.0984e+04   3.13e-25
  6.3304e+04   3.00e-25
  6.5712e+04   2.88e-25
  6.8212e+04   2.76e-25
  7.0807e+04   2.64e-25
  7.3500e+04   2.53e-25
  7.6297e+04   2.43e-25
  7.9199e+04   2.33e-25
  8.2212e+04   2.23e-25
  8.5340e+04   2.13e-25
  8.8586e+04   2.04e-25
  9.1956e+04   1.96e-25
  9.5455e+04   1.87e-25
  9.9086e+04   1.79e-25
  1.0286e+05   1.71e-25
  1.0677e+05   1.64e-25
  1.1083e+05   1.57e-25
  1.1505e+05   1.50e-25
  1.1942e+05   1.43e-25
  1.2397e+05   1.37e-25
  1.2868e+05   1.31e-25
  1.3358e+05   1.25e-25
  1.3866e+05   1.20e-25
  1.4394e+05   1.14e-25
  1.4941e+05   1.09e-25
  1.5509e+05   1.04e-25
  1.6100e+05   9.92e-26
  1.6712e+05   9.46e-26
  1.7348e+05   9.02e-26
  1.8008e+05   8.59e-26
  1.8693e+05   8.19e-26
  1.9404e+05   7.80e-26
  2.0142e+05   7.42e-26
  2.0908e+05   7.06e-26
  2.1704e+05   6.72e-26
  2.2529e+05   6.39e-26
  2.3387e+05   6.07e-26
  2.4276e+05   5.76e-26
  2.5200e+05   5.47e-26
  2.6158e+05   5.19e-26
  2.7154e+05   4.93e-26
  2.8187e+05   4.67e-26
  2.9259e+05   4.43e-26
  3.0372e+05   4.20e-26
  3.1527e+05   3.97e-26
  3.2727e+05   3.76e-26
  3.3972e+05   3.55e-26
  3.5264e+05   3.36e-26
  3.6606e+05   3.17e-26
  3.7998e+05   2.99e-26
  3.9444e+05   2.82e-26
  4.0945e+05   2.66e-26
  4.2502e+05   2.51e-26
  4.4119e+05   2.36e-26
  4.5798e+05   2.22e-26
  4.7540e+05   2.09e-26
  4.9348e+05   1.96e-26
  5.1226e+05   1.84e-26
  5.3175e+05   1.73e-26
  5.5198e+05   1.63e-26
  5.7297e+05   1.52e-26
  5.9477e+05   1.43e-26
  6.1740e+05   1.34e-26
  6.4089e+05   1.25e-26
  6.6527e+05   1.17e-26
  6.9058e+05   1.10e-26
  7.1685e+05   1.02e-26
  7.4412e+05   9.57e-27
  7.7243e+05   8.94e-27
  8.0181e+05   8.34e-27
  8.3232e+05   7.79e-27
  8.6398e+05   7.26e-27
  8.9685e+05   6.77e-27
  9.3097e+05   6.31e-27
  9.6638e+05   5.88e-27
  1.0031e+06   5.48e-27
  1.0413e+06   5.10e-27
  1.0809e+06   4.74e-27
  1.1220e+06   4.41e-27
  1.1647e+06   4.11e-27
  1.2090e+06   3.82e-27
  1.2550e+06   3.55e-27
  1.3028e+06   3.30e-27
  1.3523e+06   3.06e-27
  1.4038e+06   2.84e-27
  1.4572e+06   2.64e-27
  1.5126e+06   2.44e-27
  1.5702e+06   2.27e-27
  1.6299e+06   2.10e-27
  1.6919e+06   1.95e-27
  1.7563e+06   1.80e-27
  1.8231e+06   1.67e-27
  1.8925e+06   1.54e-27
  1.9645e+06   1.43e-27
  2.0392e+06   1.32e-27
  2.1168e+06   1.22e-27
  2.1973e+06   1.13e-27
  2.2809e+06   1.04e-27
  2.3677e+06   9.59e-28
  2.4577e+06   8.84e-28
  2.5512e+06   8.15e-28
  2.6483e+06   7.50e-28
  2.7490e+06   6.88e-28
  2.8536e+06   6.33e-28
  2.9622e+06   5.82e-28
  3.0749e+06   5.33e-28
  3.1918e+06   4.89e-28
  3.3133e+06   4.48e-28
  3.4393e+06   4.09e-28
  3.5702e+06   3.75e-28
  3.7060e+06   3.42e-28
  3.8470e+06   3.12e-28
  3.9933e+06   2.84e-28
  4.1452e+06   2.59e-28
  4.3029e+06   2.35e-28
  4.4666e+06   2.13e-28
  4.6366e+06   1.94e-28
  4.8129e+06   1.75e-28
  4.9960e+06   1.58e-28
  5.1861e+06   1.43e-28
  5.3834e+06   1.29e-28
  5.5882e+06   1.16e-28
  5.8008e+06   1.04e-28
  6.0215e+06   9.30e-29
  6.2506e+06   8.31e-29
  6.4883e+06   7.43e-29
  6.7352e+06   6.61e-29
  6.9914e+06   5.86e-29
  7.2574e+06   5.21e-29
  7.5335e+06   4.60e-29
  7.8201e+06   4.04e-29
  8.1176e+06   3.57e-29
  8.4264e+06   3.12e-29
  8.7470e+06   2.72e-29
  9.0797e+06   2.38e-29
  9.4251e+06   2.06e-29
  9.7837e+06   1.77e-29
  1.0156e+07   1.53e-29
  1.0542e+07   1.31e-29
  1.0943e+07   1.11e-29
  1.1360e+07   9.44e-30
  1.1792e+07   7.96e-30
  1.2240e+07   6.62e-30
  1.2706e+07   5.53e-30
  1.3189e+07   4.57e-30
  1.3691e+07   3.72e-30
  1.4212e+07   3.03e-30
  1.4753e+07   2.44e-30
  1.5314e+07   1.93e-30
  1.5897e+07   1.52e-30
  1.6501e+07   1.18e-30
  1.7129e+07   8.98e-31
  1.7781e+07   6.77e-31
  1.8457e+07   5.02e-31
  1.9159e+07   3.61e-31
  1.9888e+07   2.55e-31
  2.0645e+07   1.76e-31
  2.1430e+07   1.17e-31
  2.2245e+07   7.52e-32
  2.3092e+07   4.69e-32
  2.3970e+07   2.76e-32
  2.4882e+07   1.54e-32
  2.5829e+07   8.19e-33
  2.6811e+07   4.00e-33
  2.7831e+07   1.78e-33
  2.8890e+07   7.35e-34
  2.9989e+07   2.64e-34
  3.1130e+07   8.15e-35
  3.2314e+07   2.17e-35
  3.3544e+07   4.59e-36
  3.4820e+07   7.39e-37
  3.6144e+07   8.92e-38
  3.7519e+07   7.14e-39
  3.8947e+07   3.44e-40
  4.0428e+07   9.35e-42
  4.1966e+07   1.16e-43
  4.3563e+07   5.22e-46
  4.5220e+07   6.86e-49
  4.6941e+07   1.74e-52
  4.8726e+07   5.07e-57
  5.0580e+07   9.51e-63
