#  E [MeV]   Flux [# cm^{-2} s^{-1}  MeV^{-1}]
  3.0000e+04   2.06e-24
  3.1051e+04   1.98e-24
  3.2139e+04   1.89e-24
  3.3266e+04   1.81e-24
  3.4432e+04   1.73e-24
  3.5638e+04   1.66e-24
  3.6887e+04   1.59e-24
  3.8180e+04   1.52e-24
  3.9518e+04   1.45e-24
  4.0903e+04   1.39e-24
  4.2336e+04   1.33e-24
  4.3820e+04   1.27e-24
  4.5355e+04   1.22e-24
  4.6945e+04   1.16e-24
  4.8590e+04   1.11e-24
  5.0293e+04   1.06e-24
  5.2055e+04   1.02e-24
  5.3879e+04   9.71e-25
  5.5767e+04   9.28e-25
  5.7722e+04   8.87e-25
  5.9745e+04   8.47e-25
  6.1838e+04   8.09e-25
  6.4005e+04   7.73e-25
  6.6248e+04   7.38e-25
  6.8570e+04   7.05e-25
  7.0973e+04   6.73e-25
  7.3460e+04   6.42e-25
  7.6034e+04   6.13e-25
  7.8699e+04   5.85e-25
  8.1457e+04   5.58e-25
  8.4311e+04   5.33e-25
  8.7266e+04   5.08e-25
  9.0324e+04   4.85e-25
  9.3490e+04   4.62e-25
  9.6766e+04   4.41e-25
  1.0016e+05   4.20e-25
  1.0367e+05   4.00e-25
  1.0730e+05   3.82e-25
  1.1106e+05   3.64e-25
  1.1495e+05   3.47e-25
  1.1898e+05   3.30e-25
  1.2315e+05   3.15e-25
  1.2747e+05   3.00e-25
  1.3193e+05   2.85e-25
  1.3656e+05   2.72e-25
  1.4134e+05   2.58e-25
  1.4629e+05   2.46e-25
  1.5142e+05   2.34e-25
  1.5673e+05   2.23e-25
  1.6222e+05   2.12e-25
  1.6790e+05   2.01e-25
  1.7379e+05   1.91e-25
  1.7988e+05   1.82e-25
  1.8618e+05   1.73e-25
  1.9271e+05   1.64e-25
  1.9946e+05   1.56e-25
  2.0645e+05   1.48e-25
  2.1369e+05   1.40e-25
  2.2117e+05   1.33e-25
  2.2892e+05   1.26e-25
  2.3695e+05   1.19e-25
  2.4525e+05   1.13e-25
  2.5385e+05   1.07e-25
  2.6274e+05   1.01e-25
  2.7195e+05   9.56e-26
  2.8148e+05   9.03e-26
  2.9134e+05   8.52e-26
  3.0155e+05   8.04e-26
  3.1212e+05   7.58e-26
  3.2306e+05   7.15e-26
  3.3438e+05   6.73e-26
  3.4610e+05   6.33e-26
  3.5823e+05   5.95e-26
  3.7078e+05   5.59e-26
  3.8377e+05   5.25e-26
  3.9722e+05   4.92e-26
  4.1114e+05   4.62e-26
  4.2555e+05   4.32e-26
  4.4046e+05   4.05e-26
  4.5590e+05   3.79e-26
  4.7188e+05   3.55e-26
  4.8841e+05   3.32e-26
  5.0553e+05   3.11e-26
  5.2324e+05   2.90e-26
  5.4158e+05   2.71e-26
  5.6056e+05   2.53e-26
  5.8020e+05   2.36e-26
  6.0054e+05   2.20e-26
  6.2158e+05   2.06e-26
  6.4337e+05   1.92e-26
  6.6591e+05   1.78e-26
  6.8925e+05   1.66e-26
  7.1340e+05   1.54e-26
  7.3840e+05   1.43e-26
  7.6428e+05   1.33e-26
  7.9106e+05   1.24e-26
  8.1878e+05   1.15e-26
  8.4748e+05   1.06e-26
  8.7718e+05   9.84e-27
  9.0792e+05   9.12e-27
  9.3973e+05   8.44e-27
  9.7267e+05   7.80e-27
  1.0068e+06   7.22e-27
  1.0420e+06   6.67e-27
  1.0785e+06   6.15e-27
  1.1163e+06   5.68e-27
  1.1555e+06   5.24e-27
  1.1960e+06   4.83e-27
  1.2379e+06   4.45e-27
  1.2813e+06   4.10e-27
  1.3262e+06   3.78e-27
  1.3726e+06   3.47e-27
  1.4207e+06   3.19e-27
  1.4705e+06   2.93e-27
  1.5220e+06   2.69e-27
  1.5754e+06   2.46e-27
  1.6306e+06   2.26e-27
  1.6877e+06   2.07e-27
  1.7469e+06   1.89e-27
  1.8081e+06   1.73e-27
  1.8715e+06   1.58e-27
  1.9370e+06   1.44e-27
  2.0049e+06   1.31e-27
  2.0752e+06   1.19e-27
  2.1479e+06   1.08e-27
  2.2232e+06   9.86e-28
  2.3011e+06   8.96e-28
  2.3817e+06   8.11e-28
  2.4652e+06   7.34e-28
  2.5516e+06   6.65e-28
  2.6410e+06   6.01e-28
  2.7336e+06   5.40e-28
  2.8294e+06   4.88e-28
  2.9285e+06   4.39e-28
  3.0311e+06   3.92e-28
  3.1374e+06   3.52e-28
  3.2473e+06   3.16e-28
  3.3611e+06   2.81e-28
  3.4789e+06   2.50e-28
  3.6008e+06   2.24e-28
  3.7270e+06   1.99e-28
  3.8576e+06   1.75e-28
  3.9928e+06   1.56e-28
  4.1327e+06   1.38e-28
  4.2775e+06   1.21e-28
  4.4274e+06   1.07e-28
  4.5826e+06   9.42e-29
  4.7432e+06   8.23e-29
  4.9094e+06   7.18e-29
  5.0815e+06   6.31e-29
  5.2595e+06   5.49e-29
  5.4438e+06   4.73e-29
  5.6346e+06   4.13e-29
  5.8321e+06   3.58e-29
  6.0365e+06   3.06e-29
  6.2480e+06   2.64e-29
  6.4670e+06   2.28e-29
  6.6936e+06   1.94e-29
  6.9282e+06   1.65e-29
  7.1709e+06   1.41e-29
  7.4222e+06   1.20e-29
  7.6823e+06   1.00e-29
  7.9516e+06   8.55e-30
  8.2302e+06   7.22e-30
  8.5186e+06   6.00e-30
  8.8172e+06   5.02e-30
  9.1262e+06   4.22e-30
  9.4460e+06   3.49e-30
  9.7770e+06   2.86e-30
  1.0120e+07   2.39e-30
  1.0474e+07   1.96e-30
  1.0841e+07   1.58e-30
  1.1221e+07   1.31e-30
  1.1614e+07   1.07e-30
  1.2022e+07   8.55e-31
  1.2443e+07   6.89e-31
  1.2879e+07   5.58e-31
  1.3330e+07   4.44e-31
  1.3797e+07   3.49e-31
  1.4281e+07   2.80e-31
  1.4781e+07   2.20e-31
  1.5299e+07   1.70e-31
  1.5835e+07   1.33e-31
  1.6390e+07   1.02e-31
  1.6965e+07   7.71e-32
  1.7559e+07   5.79e-32
  1.8175e+07   4.32e-32
  1.8812e+07   3.15e-32
  1.9471e+07   2.24e-32
  2.0153e+07   1.58e-32
  2.0859e+07   1.07e-32
  2.1590e+07   7.04e-33
  2.2347e+07   4.48e-33
  2.3130e+07   2.72e-33
  2.3941e+07   1.56e-33
  2.4780e+07   8.44e-34
  2.5648e+07   4.25e-34
  2.6547e+07   1.96e-34
  2.7477e+07   8.26e-35
  2.8440e+07   3.18e-35
