#  E [MeV]   Flux [# cm^{-2} s^{-1}  MeV^{-1}]
  3.0000e+04   9.78e-26
  3.1232e+04   9.36e-26
  3.2514e+04   8.95e-26
  3.3849e+04   8.56e-26
  3.5238e+04   8.19e-26
  3.6685e+04   7.84e-26
  3.8191e+04   7.49e-26
  3.9759e+04   7.17e-26
  4.1391e+04   6.85e-26
  4.3090e+04   6.55e-26
  4.4859e+04   6.27e-26
  4.6701e+04   5.99e-26
  4.8618e+04   5.73e-26
  5.0614e+04   5.48e-26
  5.2692e+04   5.23e-26
  5.4855e+04   5.00e-26
  5.7107e+04   4.78e-26
  5.9451e+04   4.57e-26
  6.1892e+04   4.37e-26
  6.4433e+04   4.17e-26
  6.7078e+04   3.99e-26
  6.9832e+04   3.81e-26
  7.2699e+04   3.64e-26
  7.5683e+04   3.47e-26
  7.8790e+04   3.32e-26
  8.2025e+04   3.17e-26
  8.5392e+04   3.02e-26
  8.8898e+04   2.89e-26
  9.2547e+04   2.76e-26
  9.6347e+04   2.63e-26
  1.0030e+05   2.51e-26
  1.0442e+05   2.39e-26
  1.0871e+05   2.28e-26
  1.1317e+05   2.18e-26
  1.1782e+05   2.08e-26
  1.2265e+05   1.98e-26
  1.2769e+05   1.89e-26
  1.3293e+05   1.80e-26
  1.3839e+05   1.71e-26
  1.4407e+05   1.63e-26
  1.4998e+05   1.55e-26
  1.5614e+05   1.48e-26
  1.6255e+05   1.41e-26
  1.6922e+05   1.34e-26
  1.7617e+05   1.27e-26
  1.8340e+05   1.21e-26
  1.9093e+05   1.15e-26
  1.9877e+05   1.09e-26
  2.0693e+05   1.04e-26
  2.1543e+05   9.83e-27
  2.2427e+05   9.32e-27
  2.3348e+05   8.83e-27
  2.4306e+05   8.36e-27
  2.5304e+05   7.91e-27
  2.6343e+05   7.49e-27
  2.7424e+05   7.08e-27
  2.8550e+05   6.69e-27
  2.9722e+05   6.31e-27
  3.0942e+05   5.95e-27
  3.2213e+05   5.61e-27
  3.3535e+05   5.28e-27
  3.4912e+05   4.97e-27
  3.6345e+05   4.68e-27
  3.7837e+05   4.39e-27
  3.9390e+05   4.12e-27
  4.1008e+05   3.87e-27
  4.2691e+05   3.62e-27
  4.4444e+05   3.39e-27
  4.6268e+05   3.17e-27
  4.8168e+05   2.97e-27
  5.0145e+05   2.77e-27
  5.2204e+05   2.59e-27
  5.4347e+05   2.41e-27
  5.6578e+05   2.25e-27
  5.8901e+05   2.09e-27
  6.1319e+05   1.94e-27
  6.3836e+05   1.81e-27
  6.6457e+05   1.68e-27
  6.9185e+05   1.56e-27
  7.2025e+05   1.44e-27
  7.4982e+05   1.34e-27
  7.8061e+05   1.24e-27
  8.1265e+05   1.15e-27
  8.4601e+05   1.06e-27
  8.8075e+05   9.83e-28
  9.1690e+05   9.09e-28
  9.5455e+05   8.40e-28
  9.9373e+05   7.77e-28
  1.0345e+06   7.18e-28
  1.0770e+06   6.63e-28
  1.1212e+06   6.12e-28
  1.1672e+06   5.65e-28
  1.2152e+06   5.21e-28
  1.2650e+06   4.81e-28
  1.3170e+06   4.43e-28
  1.3711e+06   4.09e-28
  1.4273e+06   3.77e-28
  1.4859e+06   3.48e-28
  1.5469e+06   3.21e-28
  1.6104e+06   2.96e-28
  1.6766e+06   2.73e-28
  1.7454e+06   2.51e-28
  1.8170e+06   2.31e-28
  1.8916e+06   2.13e-28
  1.9693e+06   1.96e-28
  2.0501e+06   1.81e-28
  2.1343e+06   1.66e-28
  2.2219e+06   1.53e-28
  2.3131e+06   1.40e-28
  2.4081e+06   1.28e-28
  2.5070e+06   1.18e-28
  2.6099e+06   1.08e-28
  2.7170e+06   9.88e-29
  2.8286e+06   9.04e-29
  2.9447e+06   8.26e-29
  3.0656e+06   7.53e-29
  3.1914e+06   6.87e-29
  3.3225e+06   6.25e-29
  3.4589e+06   5.69e-29
  3.6008e+06   5.17e-29
  3.7487e+06   4.68e-29
  3.9026e+06   4.24e-29
  4.0628e+06   3.83e-29
  4.2296e+06   3.45e-29
  4.4032e+06   3.11e-29
  4.5840e+06   2.79e-29
  4.7722e+06   2.50e-29
  4.9681e+06   2.24e-29
  5.1720e+06   2.00e-29
  5.3844e+06   1.77e-29
  5.6054e+06   1.58e-29
  5.8355e+06   1.40e-29
  6.0751e+06   1.23e-29
  6.3245e+06   1.08e-29
  6.5841e+06   9.49e-30
  6.8544e+06   8.28e-30
  7.1358e+06   7.21e-30
  7.4288e+06   6.24e-30
  7.7338e+06   5.38e-30
  8.0513e+06   4.63e-30
  8.3818e+06   3.94e-30
  8.7259e+06   3.35e-30
  9.0841e+06   2.83e-30
  9.4571e+06   2.36e-30
  9.8453e+06   1.97e-30
  1.0249e+07   1.63e-30
  1.0670e+07   1.33e-30
  1.1108e+07   1.08e-30
  1.1564e+07   8.65e-31
  1.2039e+07   6.83e-31
  1.2533e+07   5.37e-31
  1.3048e+07   4.15e-31
  1.3584e+07   3.14e-31
  1.4141e+07   2.36e-31
  1.4722e+07   1.73e-31
  1.5326e+07   1.24e-31
  1.5955e+07   8.69e-32
  1.6610e+07   5.90e-32
  1.7292e+07   3.89e-32
  1.8002e+07   2.48e-32
  1.8741e+07   1.51e-32
  1.9511e+07   8.77e-33
  2.0312e+07   4.84e-33
  2.1145e+07   2.49e-33
  2.2013e+07   1.20e-33
  2.2917e+07   5.28e-34
  2.3858e+07   2.09e-34
  2.4837e+07   7.39e-35
  2.5857e+07   2.26e-35
  2.6919e+07   5.79e-36
  2.8024e+07   1.23e-36
  2.9174e+07   2.02e-37
  3.0372e+07   2.44e-38
  3.1619e+07   2.09e-39
  3.2917e+07   1.13e-40
  3.4268e+07   3.47e-42
  3.5675e+07   5.40e-44
  3.7140e+07   3.47e-46
  3.8664e+07   7.38e-49
  4.0252e+07   3.86e-52
  4.1904e+07   3.24e-56
  4.3624e+07   2.56e-61
  4.5415e+07   9.15e-68
  4.7280e+07   4.23e-72
  4.9221e+07   3.62e-72
  5.1241e+07   3.11e-72
  5.3345e+07   2.64e-72
  5.5535e+07   2.28e-72
  5.7815e+07   1.97e-72
  6.0188e+07   1.68e-72
  6.2659e+07   1.47e-72
  6.5232e+07   1.28e-72
  6.7910e+07   1.11e-72
  7.0698e+07   9.88e-73
  7.3600e+07   8.76e-73
  7.6621e+07   7.76e-73
  7.9767e+07   7.00e-73
  8.3042e+07   6.29e-73
  8.6451e+07   5.67e-73
  9.0000e+07   5.19e-73
