#  E [MeV]   Flux [# cm^{-2} s^{-1}  MeV^{-1}]
  3.0000e+04   1.21e-21
  3.1123e+04   1.16e-21
  3.2288e+04   1.12e-21
  3.3497e+04   1.08e-21
  3.4751e+04   1.03e-21
  3.6051e+04   9.94e-22
  3.7401e+04   9.56e-22
  3.8801e+04   9.18e-22
  4.0253e+04   8.82e-22
  4.1760e+04   8.47e-22
  4.3324e+04   8.13e-22
  4.4945e+04   7.80e-22
  4.6628e+04   7.49e-22
  4.8373e+04   7.19e-22
  5.0184e+04   6.89e-22
  5.2063e+04   6.61e-22
  5.4011e+04   6.34e-22
  5.6033e+04   6.08e-22
  5.8131e+04   5.82e-22
  6.0307e+04   5.58e-22
  6.2564e+04   5.35e-22
  6.4906e+04   5.12e-22
  6.7336e+04   4.90e-22
  6.9857e+04   4.69e-22
  7.2472e+04   4.49e-22
  7.5184e+04   4.29e-22
  7.7999e+04   4.11e-22
  8.0919e+04   3.93e-22
  8.3948e+04   3.75e-22
  8.7090e+04   3.59e-22
  9.0350e+04   3.43e-22
  9.3732e+04   3.27e-22
  9.7241e+04   3.12e-22
  1.0088e+05   2.98e-22
  1.0466e+05   2.85e-22
  1.0858e+05   2.72e-22
  1.1264e+05   2.59e-22
  1.1686e+05   2.47e-22
  1.2123e+05   2.35e-22
  1.2577e+05   2.24e-22
  1.3048e+05   2.13e-22
  1.3536e+05   2.03e-22
  1.4043e+05   1.93e-22
  1.4568e+05   1.84e-22
  1.5114e+05   1.75e-22
  1.5680e+05   1.67e-22
  1.6266e+05   1.58e-22
  1.6875e+05   1.50e-22
  1.7507e+05   1.43e-22
  1.8162e+05   1.36e-22
  1.8842e+05   1.29e-22
  1.9548e+05   1.22e-22
  2.0279e+05   1.16e-22
  2.1039e+05   1.10e-22
  2.1826e+05   1.04e-22
  2.2643e+05   9.86e-23
  2.3491e+05   9.33e-23
  2.4370e+05   8.83e-23
  2.5282e+05   8.36e-23
  2.6229e+05   7.90e-23
  2.7211e+05   7.47e-23
  2.8229e+05   7.05e-23
  2.9286e+05   6.66e-23
  3.0382e+05   6.28e-23
  3.1519e+05   5.93e-23
  3.2699e+05   5.59e-23
  3.3923e+05   5.27e-23
  3.5193e+05   4.96e-23
  3.6511e+05   4.67e-23
  3.7877e+05   4.40e-23
  3.9295e+05   4.14e-23
  4.0766e+05   3.89e-23
  4.2292e+05   3.65e-23
  4.3875e+05   3.43e-23
  4.5518e+05   3.22e-23
  4.7222e+05   3.02e-23
  4.8989e+05   2.83e-23
  5.0823e+05   2.66e-23
  5.2726e+05   2.49e-23
  5.4699e+05   2.33e-23
  5.6747e+05   2.18e-23
  5.8871e+05   2.04e-23
  6.1075e+05   1.91e-23
  6.3361e+05   1.79e-23
  6.5733e+05   1.67e-23
  6.8194e+05   1.56e-23
  7.0746e+05   1.46e-23
  7.3395e+05   1.37e-23
  7.6142e+05   1.28e-23
  7.8992e+05   1.19e-23
  8.1949e+05   1.12e-23
  8.5017e+05   1.04e-23
  8.8199e+05   9.75e-24
  9.1501e+05   9.12e-24
  9.4926e+05   8.52e-24
  9.8479e+05   7.97e-24
  1.0217e+06   7.45e-24
  1.0599e+06   6.96e-24
  1.0996e+06   6.51e-24
  1.1407e+06   6.10e-24
  1.1834e+06   5.70e-24
  1.2277e+06   5.34e-24
  1.2737e+06   5.00e-24
  1.3214e+06   4.68e-24
  1.3708e+06   4.39e-24
  1.4222e+06   4.11e-24
  1.4754e+06   3.86e-24
  1.5306e+06   3.62e-24
  1.5879e+06   3.40e-24
  1.6474e+06   3.19e-24
  1.7090e+06   2.99e-24
  1.7730e+06   2.81e-24
  1.8394e+06   2.64e-24
  1.9082e+06   2.48e-24
  1.9797e+06   2.33e-24
  2.0538e+06   2.20e-24
  2.1306e+06   2.06e-24
  2.2104e+06   1.94e-24
  2.2931e+06   1.83e-24
  2.3790e+06   1.72e-24
  2.4680e+06   1.62e-24
  2.5604e+06   1.53e-24
  2.6563e+06   1.44e-24
  2.7557e+06   1.36e-24
  2.8589e+06   1.28e-24
  2.9659e+06   1.21e-24
  3.0769e+06   1.14e-24
  3.1921e+06   1.08e-24
  3.3116e+06   1.01e-24
  3.4355e+06   9.57e-25
  3.5641e+06   9.03e-25
  3.6976e+06   8.52e-25
  3.8360e+06   8.03e-25
  3.9796e+06   7.57e-25
  4.1285e+06   7.14e-25
  4.2831e+06   6.73e-25
  4.4434e+06   6.34e-25
  4.6097e+06   5.97e-25
  4.7823e+06   5.62e-25
  4.9613e+06   5.29e-25
  5.1470e+06   4.98e-25
  5.3397e+06   4.68e-25
  5.5396e+06   4.39e-25
  5.7470e+06   4.12e-25
  5.9621e+06   3.87e-25
  6.1853e+06   3.62e-25
  6.4168e+06   3.39e-25
  6.6570e+06   3.17e-25
  6.9062e+06   2.95e-25
  7.1647e+06   2.75e-25
  7.4329e+06   2.56e-25
  7.7112e+06   2.37e-25
  7.9998e+06   2.20e-25
  8.2993e+06   2.03e-25
  8.6100e+06   1.87e-25
  8.9323e+06   1.72e-25
  9.2666e+06   1.57e-25
  9.6135e+06   1.44e-25
  9.9734e+06   1.31e-25
  1.0347e+07   1.18e-25
  1.0734e+07   1.07e-25
  1.1136e+07   9.56e-26
  1.1553e+07   8.52e-26
  1.1985e+07   7.55e-26
  1.2434e+07   6.65e-26
  1.2899e+07   5.80e-26
  1.3382e+07   5.03e-26
  1.3883e+07   4.31e-26
  1.4403e+07   3.66e-26
  1.4942e+07   3.07e-26
  1.5501e+07   2.55e-26
  1.6081e+07   2.08e-26
  1.6683e+07   1.67e-26
  1.7308e+07   1.32e-26
  1.7956e+07   1.01e-26
  1.8628e+07   7.65e-27
  1.9325e+07   5.61e-27
  2.0049e+07   3.98e-27
  2.0799e+07   2.73e-27
  2.1578e+07   1.80e-27
  2.2386e+07   1.13e-27
  2.3224e+07   6.73e-28
  2.4093e+07   3.76e-28
  2.4995e+07   1.95e-28
  2.5930e+07   9.26e-29
  2.6901e+07   3.97e-29
  2.7908e+07   1.51e-29
  2.8953e+07   4.97e-30
  3.0037e+07   1.38e-30
  3.1161e+07   3.12e-31
  3.2327e+07   5.49e-32
  3.3537e+07   7.16e-33
  3.4793e+07   6.47e-34
  3.6095e+07   3.73e-35
  3.7446e+07   1.23e-36
  3.8848e+07   2.04e-38
  4.0302e+07   1.42e-40
  4.1811e+07   3.34e-43
  4.3376e+07   1.97e-46
  4.5000e+07   2.00e-50
