#  E [MeV]   Flux [# cm^{-2} s^{-1}  MeV^{-1}]
  3.0000e+04   2.42e-24
  3.0962e+04   2.32e-24
  3.1955e+04   2.23e-24
  3.2979e+04   2.14e-24
  3.4037e+04   2.05e-24
  3.5128e+04   1.97e-24
  3.6254e+04   1.89e-24
  3.7417e+04   1.81e-24
  3.8616e+04   1.74e-24
  3.9855e+04   1.67e-24
  4.1132e+04   1.60e-24
  4.2451e+04   1.53e-24
  4.3812e+04   1.47e-24
  4.5217e+04   1.41e-24
  4.6667e+04   1.35e-24
  4.8163e+04   1.29e-24
  4.9707e+04   1.24e-24
  5.1301e+04   1.18e-24
  5.2946e+04   1.13e-24
  5.4644e+04   1.09e-24
  5.6396e+04   1.04e-24
  5.8204e+04   9.94e-25
  6.0070e+04   9.51e-25
  6.1996e+04   9.09e-25
  6.3984e+04   8.70e-25
  6.6035e+04   8.31e-25
  6.8153e+04   7.95e-25
  7.0338e+04   7.59e-25
  7.2593e+04   7.26e-25
  7.4921e+04   6.93e-25
  7.7323e+04   6.62e-25
  7.9802e+04   6.32e-25
  8.2361e+04   6.03e-25
  8.5002e+04   5.76e-25
  8.7727e+04   5.49e-25
  9.0540e+04   5.24e-25
  9.3443e+04   4.99e-25
  9.6439e+04   4.76e-25
  9.9531e+04   4.53e-25
  1.0272e+05   4.32e-25
  1.0602e+05   4.11e-25
  1.0942e+05   3.91e-25
  1.1292e+05   3.72e-25
  1.1654e+05   3.54e-25
  1.2028e+05   3.36e-25
  1.2414e+05   3.20e-25
  1.2812e+05   3.04e-25
  1.3223e+05   2.88e-25
  1.3646e+05   2.74e-25
  1.4084e+05   2.60e-25
  1.4536e+05   2.46e-25
  1.5002e+05   2.33e-25
  1.5483e+05   2.21e-25
  1.5979e+05   2.10e-25
  1.6491e+05   1.98e-25
  1.7020e+05   1.88e-25
  1.7566e+05   1.78e-25
  1.8129e+05   1.68e-25
  1.8710e+05   1.59e-25
  1.9310e+05   1.50e-25
  1.9929e+05   1.42e-25
  2.0568e+05   1.34e-25
  2.1228e+05   1.26e-25
  2.1909e+05   1.19e-25
  2.2611e+05   1.12e-25
  2.3336e+05   1.05e-25
  2.4084e+05   9.91e-26
  2.4856e+05   9.32e-26
  2.5653e+05   8.76e-26
  2.6476e+05   8.22e-26
  2.7325e+05   7.72e-26
  2.8201e+05   7.24e-26
  2.9105e+05   6.78e-26
  3.0038e+05   6.35e-26
  3.1002e+05   5.95e-26
  3.1996e+05   5.56e-26
  3.3021e+05   5.19e-26
  3.4080e+05   4.85e-26
  3.5173e+05   4.52e-26
  3.6301e+05   4.21e-26
  3.7465e+05   3.92e-26
  3.8666e+05   3.65e-26
  3.9905e+05   3.39e-26
  4.1185e+05   3.15e-26
  4.2506e+05   2.92e-26
  4.3868e+05   2.71e-26
  4.5275e+05   2.51e-26
  4.6727e+05   2.32e-26
  4.8225e+05   2.14e-26
  4.9771e+05   1.98e-26
  5.1367e+05   1.83e-26
  5.3014e+05   1.68e-26
  5.4714e+05   1.55e-26
  5.6468e+05   1.43e-26
  5.8278e+05   1.31e-26
  6.0147e+05   1.20e-26
  6.2075e+05   1.11e-26
  6.4066e+05   1.01e-26
  6.6120e+05   9.28e-27
  6.8240e+05   8.50e-27
  7.0428e+05   7.79e-27
  7.2686e+05   7.12e-27
  7.5017e+05   6.49e-27
  7.7422e+05   5.93e-27
  7.9904e+05   5.41e-27
  8.2466e+05   4.93e-27
  8.5110e+05   4.48e-27
  8.7839e+05   4.09e-27
  9.0656e+05   3.72e-27
  9.3562e+05   3.37e-27
  9.6562e+05   3.07e-27
  9.9658e+05   2.79e-27
  1.0285e+06   2.53e-27
  1.0615e+06   2.29e-27
  1.0956e+06   2.08e-27
  1.1307e+06   1.88e-27
  1.1669e+06   1.70e-27
  1.2043e+06   1.54e-27
  1.2430e+06   1.40e-27
  1.2828e+06   1.26e-27
  1.3239e+06   1.14e-27
  1.3664e+06   1.03e-27
  1.4102e+06   9.30e-28
  1.4554e+06   8.39e-28
  1.5021e+06   7.54e-28
  1.5502e+06   6.81e-28
  1.6000e+06   6.14e-28
  1.6513e+06   5.51e-28
  1.7042e+06   4.95e-28
  1.7588e+06   4.46e-28
  1.8152e+06   4.00e-28
  1.8734e+06   3.58e-28
  1.9335e+06   3.22e-28
  1.9955e+06   2.89e-28
  2.0595e+06   2.58e-28
  2.1255e+06   2.30e-28
  2.1937e+06   2.07e-28
  2.2640e+06   1.85e-28
  2.3366e+06   1.65e-28
  2.4115e+06   1.47e-28
  2.4888e+06   1.31e-28
  2.5686e+06   1.17e-28
  2.6510e+06   1.03e-28
  2.7360e+06   9.23e-29
  2.8237e+06   8.22e-29
  2.9142e+06   7.28e-29
  3.0077e+06   6.42e-29
  3.1041e+06   5.71e-29
  3.2036e+06   5.06e-29
  3.3064e+06   4.44e-29
  3.4124e+06   3.92e-29
  3.5218e+06   3.47e-29
  3.6347e+06   3.05e-29
  3.7512e+06   2.66e-29
  3.8715e+06   2.36e-29
  3.9957e+06   2.08e-29
  4.1238e+06   1.81e-29
  4.2560e+06   1.58e-29
  4.3924e+06   1.40e-29
  4.5333e+06   1.22e-29
  4.6786e+06   1.06e-29
  4.8286e+06   9.29e-30
  4.9835e+06   8.17e-30
  5.1433e+06   7.12e-30
  5.3082e+06   6.15e-30
  5.4784e+06   5.40e-30
  5.6540e+06   4.72e-30
  5.8353e+06   4.10e-30
  6.0224e+06   3.55e-30
  6.2155e+06   3.12e-30
  6.4148e+06   2.72e-30
  6.6205e+06   2.36e-30
  6.8327e+06   2.06e-30
  7.0518e+06   1.80e-30
  7.2779e+06   1.57e-30
  7.5113e+06   1.35e-30
  7.7521e+06   1.19e-30
  8.0007e+06   1.03e-30
  8.2572e+06   8.93e-31
  8.5219e+06   7.70e-31
  8.7952e+06   6.68e-31
  9.0772e+06   5.76e-31
  9.3682e+06   4.92e-31
  9.6686e+06   4.22e-31
  9.9786e+06   3.61e-31
  1.0299e+07   3.07e-31
  1.0629e+07   2.58e-31
  1.0970e+07   2.17e-31
  1.1321e+07   1.81e-31
  1.1684e+07   1.50e-31
  1.2059e+07   1.23e-31
  1.2446e+07   9.94e-32
  1.2845e+07   7.96e-32
  1.3256e+07   6.28e-32
  1.3681e+07   4.88e-32
  1.4120e+07   3.73e-32
  1.4573e+07   2.79e-32
  1.5040e+07   2.06e-32
  1.5522e+07   1.52e-32
  1.6020e+07   1.09e-32
