#  E [GeV]   # per interaction  [GeV^{-1}]
  3.0000e+01   1.11e+00
  3.1141e+01   1.06e+00
  3.2326e+01   1.01e+00
  3.3556e+01   9.69e-01
  3.4832e+01   9.25e-01
  3.6157e+01   8.83e-01
  3.7533e+01   8.43e-01
  3.8961e+01   8.05e-01
  4.0443e+01   7.68e-01
  4.1982e+01   7.33e-01
  4.3579e+01   6.99e-01
  4.5237e+01   6.67e-01
  4.6958e+01   6.36e-01
  4.8744e+01   6.06e-01
  5.0598e+01   5.78e-01
  5.2523e+01   5.51e-01
  5.4521e+01   5.25e-01
  5.6596e+01   5.01e-01
  5.8749e+01   4.77e-01
  6.0984e+01   4.54e-01
  6.3304e+01   4.33e-01
  6.5712e+01   4.12e-01
  6.8212e+01   3.92e-01
  7.0807e+01   3.74e-01
  7.3500e+01   3.56e-01
  7.6297e+01   3.39e-01
  7.9199e+01   3.22e-01
  8.2212e+01   3.06e-01
  8.5340e+01   2.91e-01
  8.8586e+01   2.77e-01
  9.1956e+01   2.64e-01
  9.5455e+01   2.51e-01
  9.9086e+01   2.38e-01
  1.0286e+02   2.26e-01
  1.0677e+02   2.15e-01
  1.1083e+02   2.04e-01
  1.1505e+02   1.94e-01
  1.1942e+02   1.84e-01
  1.2397e+02   1.75e-01
  1.2868e+02   1.66e-01
  1.3358e+02   1.58e-01
  1.3866e+02   1.50e-01
  1.4394e+02   1.42e-01
  1.4941e+02   1.35e-01
  1.5509e+02   1.28e-01
  1.6100e+02   1.21e-01
  1.6712e+02   1.15e-01
  1.7348e+02   1.09e-01
  1.8008e+02   1.03e-01
  1.8693e+02   9.75e-02
  1.9404e+02   9.23e-02
  2.0142e+02   8.73e-02
  2.0908e+02   8.26e-02
  2.1704e+02   7.81e-02
  2.2529e+02   7.39e-02
  2.3387e+02   6.98e-02
  2.4276e+02   6.59e-02
  2.5200e+02   6.22e-02
  2.6158e+02   5.87e-02
  2.7154e+02   5.54e-02
  2.8187e+02   5.22e-02
  2.9259e+02   4.92e-02
  3.0372e+02   4.64e-02
  3.1527e+02   4.36e-02
  3.2727e+02   4.11e-02
  3.3972e+02   3.86e-02
  3.5264e+02   3.63e-02
  3.6606e+02   3.41e-02
  3.7998e+02   3.19e-02
  3.9444e+02   3.00e-02
  4.0945e+02   2.81e-02
  4.2502e+02   2.63e-02
  4.4119e+02   2.46e-02
  4.5798e+02   2.30e-02
  4.7540e+02   2.15e-02
  4.9348e+02   2.01e-02
  5.1226e+02   1.87e-02
  5.3175e+02   1.74e-02
  5.5198e+02   1.62e-02
  5.7297e+02   1.51e-02
  5.9477e+02   1.40e-02
  6.1740e+02   1.30e-02
  6.4089e+02   1.21e-02
  6.6527e+02   1.12e-02
  6.9058e+02   1.04e-02
  7.1685e+02   9.64e-03
  7.4412e+02   8.92e-03
  7.7243e+02   8.26e-03
  8.0181e+02   7.64e-03
  8.3232e+02   7.07e-03
  8.6398e+02   6.54e-03
  8.9685e+02   6.05e-03
  9.3097e+02   5.60e-03
  9.6638e+02   5.17e-03
  1.0031e+03   4.78e-03
  1.0413e+03   4.42e-03
  1.0809e+03   4.08e-03
  1.1220e+03   3.77e-03
  1.1647e+03   3.49e-03
  1.2090e+03   3.22e-03
  1.2550e+03   2.97e-03
  1.3028e+03   2.74e-03
  1.3523e+03   2.52e-03
  1.4038e+03   2.33e-03
  1.4572e+03   2.14e-03
  1.5126e+03   1.97e-03
  1.5702e+03   1.82e-03
  1.6299e+03   1.67e-03
  1.6919e+03   1.54e-03
  1.7563e+03   1.41e-03
  1.8231e+03   1.30e-03
  1.8925e+03   1.19e-03
  1.9645e+03   1.09e-03
  2.0392e+03   1.00e-03
  2.1168e+03   9.20e-04
  2.1973e+03   8.43e-04
  2.2809e+03   7.71e-04
  2.3677e+03   7.05e-04
  2.4577e+03   6.43e-04
  2.5512e+03   5.87e-04
  2.6483e+03   5.34e-04
  2.7490e+03   4.86e-04
  2.8536e+03   4.42e-04
  2.9622e+03   4.01e-04
  3.0749e+03   3.63e-04
  3.1918e+03   3.29e-04
  3.3133e+03   2.97e-04
  3.4393e+03   2.68e-04
  3.5702e+03   2.41e-04
  3.7060e+03   2.17e-04
  3.8470e+03   1.94e-04
  3.9933e+03   1.74e-04
  4.1452e+03   1.56e-04
  4.3029e+03   1.38e-04
  4.4666e+03   1.24e-04
  4.6366e+03   1.10e-04
  4.8129e+03   9.68e-05
  4.9960e+03   8.58e-05
  5.1861e+03   7.55e-05
  5.3834e+03   6.60e-05
  5.5882e+03   5.80e-05
  5.8008e+03   5.06e-05
  6.0215e+03   4.38e-05
  6.2506e+03   3.81e-05
  6.4883e+03   3.30e-05
  6.7352e+03   2.83e-05
  6.9914e+03   2.43e-05
  7.2574e+03   2.08e-05
  7.5335e+03   1.76e-05
  7.8201e+03   1.50e-05
  8.1176e+03   1.26e-05
  8.4264e+03   1.06e-05
  8.7470e+03   8.82e-06
  9.0797e+03   7.35e-06
  9.4251e+03   6.04e-06
  9.7837e+03   4.95e-06
  1.0156e+04   4.05e-06
  1.0542e+04   3.26e-06
  1.0943e+04   2.61e-06
  1.1360e+04   2.09e-06
  1.1792e+04   1.64e-06
  1.2240e+04   1.27e-06
  1.2706e+04   9.93e-07
  1.3189e+04   7.56e-07
  1.3691e+04   5.66e-07
  1.4212e+04   4.25e-07
  1.4753e+04   3.11e-07
  1.5314e+04   2.21e-07
  1.5897e+04   1.58e-07
  1.6501e+04   1.10e-07
  1.7129e+04   7.32e-08
  1.7781e+04   4.89e-08
  1.8457e+04   3.13e-08
  1.9159e+04   1.91e-08
  1.9888e+04   1.16e-08
  2.0645e+04   6.61e-09
  2.1430e+04   3.54e-09
  2.2245e+04   1.84e-09
  2.3092e+04   8.90e-10
  2.3970e+04   3.91e-10
  2.4882e+04   1.61e-10
  2.5829e+04   5.93e-11
  2.6811e+04   1.90e-11
  2.7831e+04   5.32e-12
  2.8890e+04   1.25e-12
  2.9989e+04   2.32e-13
  3.1130e+04   3.38e-14
  3.2314e+04   3.59e-15
  3.3544e+04   2.58e-16
  3.4820e+04   1.15e-17
  3.6144e+04   2.89e-19
  3.7519e+04   3.46e-21
  3.8947e+04   1.67e-23
  4.0428e+04   2.55e-26
  4.1966e+04   9.00e-30
  4.3563e+04   4.90e-34
  4.5220e+04   2.39e-39
  4.6941e+04   5.11e-46
  4.8726e+04   5.10e-48
  5.0580e+04   4.53e-48
