#  E [MeV]   Flux [# cm^{-2} s^{-1}  MeV^{-1}]
  3.0000e+04   9.40e-25
  3.0962e+04   9.07e-25
  3.1955e+04   8.75e-25
  3.2979e+04   8.44e-25
  3.4037e+04   8.14e-25
  3.5128e+04   7.86e-25
  3.6254e+04   7.58e-25
  3.7417e+04   7.30e-25
  3.8616e+04   7.04e-25
  3.9855e+04   6.79e-25
  4.1132e+04   6.54e-25
  4.2451e+04   6.30e-25
  4.3812e+04   6.07e-25
  4.5217e+04   5.84e-25
  4.6667e+04   5.63e-25
  4.8163e+04   5.42e-25
  4.9707e+04   5.21e-25
  5.1301e+04   5.02e-25
  5.2946e+04   4.82e-25
  5.4644e+04   4.64e-25
  5.6396e+04   4.46e-25
  5.8204e+04   4.29e-25
  6.0070e+04   4.12e-25
  6.1996e+04   3.96e-25
  6.3984e+04   3.80e-25
  6.6035e+04   3.65e-25
  6.8153e+04   3.51e-25
  7.0338e+04   3.37e-25
  7.2593e+04   3.23e-25
  7.4921e+04   3.10e-25
  7.7323e+04   2.97e-25
  7.9802e+04   2.85e-25
  8.2361e+04   2.73e-25
  8.5002e+04   2.62e-25
  8.7727e+04   2.51e-25
  9.0540e+04   2.40e-25
  9.3443e+04   2.30e-25
  9.6439e+04   2.20e-25
  9.9531e+04   2.10e-25
  1.0272e+05   2.01e-25
  1.0602e+05   1.92e-25
  1.0942e+05   1.84e-25
  1.1292e+05   1.76e-25
  1.1654e+05   1.68e-25
  1.2028e+05   1.60e-25
  1.2414e+05   1.53e-25
  1.2812e+05   1.46e-25
  1.3223e+05   1.39e-25
  1.3646e+05   1.32e-25
  1.4084e+05   1.26e-25
  1.4536e+05   1.20e-25
  1.5002e+05   1.14e-25
  1.5483e+05   1.08e-25
  1.5979e+05   1.03e-25
  1.6491e+05   9.79e-26
  1.7020e+05   9.30e-26
  1.7566e+05   8.82e-26
  1.8129e+05   8.37e-26
  1.8710e+05   7.93e-26
  1.9310e+05   7.51e-26
  1.9929e+05   7.11e-26
  2.0568e+05   6.72e-26
  2.1228e+05   6.36e-26
  2.1909e+05   6.01e-26
  2.2611e+05   5.67e-26
  2.3336e+05   5.35e-26
  2.4084e+05   5.04e-26
  2.4856e+05   4.75e-26
  2.5653e+05   4.47e-26
  2.6476e+05   4.21e-26
  2.7325e+05   3.95e-26
  2.8201e+05   3.71e-26
  2.9105e+05   3.48e-26
  3.0038e+05   3.26e-26
  3.1002e+05   3.06e-26
  3.1996e+05   2.86e-26
  3.3021e+05   2.67e-26
  3.4080e+05   2.50e-26
  3.5173e+05   2.33e-26
  3.6301e+05   2.17e-26
  3.7465e+05   2.02e-26
  3.8666e+05   1.88e-26
  3.9905e+05   1.75e-26
  4.1185e+05   1.62e-26
  4.2506e+05   1.51e-26
  4.3868e+05   1.40e-26
  4.5275e+05   1.29e-26
  4.6727e+05   1.19e-26
  4.8225e+05   1.10e-26
  4.9771e+05   1.02e-26
  5.1367e+05   9.39e-27
  5.3014e+05   8.66e-27
  5.4714e+05   7.97e-27
  5.6468e+05   7.33e-27
  5.8278e+05   6.74e-27
  6.0147e+05   6.19e-27
  6.2075e+05   5.69e-27
  6.4066e+05   5.21e-27
  6.6120e+05   4.78e-27
  6.8240e+05   4.38e-27
  7.0428e+05   4.01e-27
  7.2686e+05   3.67e-27
  7.5017e+05   3.36e-27
  7.7422e+05   3.07e-27
  7.9904e+05   2.80e-27
  8.2466e+05   2.56e-27
  8.5110e+05   2.34e-27
  8.7839e+05   2.13e-27
  9.0656e+05   1.95e-27
  9.3562e+05   1.78e-27
  9.6562e+05   1.62e-27
  9.9658e+05   1.48e-27
  1.0285e+06   1.35e-27
  1.0615e+06   1.23e-27
  1.0956e+06   1.12e-27
  1.1307e+06   1.02e-27
  1.1669e+06   9.33e-28
  1.2043e+06   8.51e-28
  1.2430e+06   7.76e-28
  1.2828e+06   7.06e-28
  1.3239e+06   6.44e-28
  1.3664e+06   5.87e-28
  1.4102e+06   5.36e-28
  1.4554e+06   4.87e-28
  1.5021e+06   4.45e-28
  1.5502e+06   4.06e-28
  1.6000e+06   3.69e-28
  1.6513e+06   3.36e-28
  1.7042e+06   3.07e-28
  1.7588e+06   2.80e-28
  1.8152e+06   2.54e-28
  1.8734e+06   2.32e-28
  1.9335e+06   2.11e-28
  1.9955e+06   1.92e-28
  2.0595e+06   1.74e-28
  2.1255e+06   1.59e-28
  2.1937e+06   1.44e-28
  2.2640e+06   1.31e-28
  2.3366e+06   1.19e-28
  2.4115e+06   1.08e-28
  2.4888e+06   9.78e-29
  2.5686e+06   8.84e-29
  2.6510e+06   8.02e-29
  2.7360e+06   7.27e-29
  2.8237e+06   6.56e-29
  2.9142e+06   5.91e-29
  3.0077e+06   5.35e-29
  3.1041e+06   4.82e-29
  3.2036e+06   4.33e-29
  3.3064e+06   3.89e-29
  3.4124e+06   3.51e-29
  3.5218e+06   3.14e-29
  3.6347e+06   2.81e-29
  3.7512e+06   2.52e-29
  3.8715e+06   2.26e-29
  3.9957e+06   2.01e-29
  4.1238e+06   1.79e-29
  4.2560e+06   1.60e-29
  4.3924e+06   1.43e-29
  4.5333e+06   1.26e-29
  4.6786e+06   1.12e-29
  4.8286e+06   9.97e-30
  4.9835e+06   8.83e-30
  5.1433e+06   7.77e-30
  5.3082e+06   6.89e-30
  5.4784e+06   6.10e-30
  5.6540e+06   5.36e-30
  5.8353e+06   4.71e-30
  6.0224e+06   4.17e-30
  6.2155e+06   3.67e-30
  6.4148e+06   3.22e-30
  6.6205e+06   2.83e-30
  6.8327e+06   2.50e-30
  7.0518e+06   2.19e-30
  7.2779e+06   1.91e-30
  7.5113e+06   1.69e-30
  7.7521e+06   1.48e-30
  8.0007e+06   1.29e-30
  8.2572e+06   1.12e-30
  8.5219e+06   9.84e-31
  8.7952e+06   8.56e-31
  9.0772e+06   7.39e-31
  9.3682e+06   6.44e-31
  9.6686e+06   5.61e-31
  9.9786e+06   4.84e-31
  1.0299e+07   4.13e-31
  1.0629e+07   3.61e-31
  1.0970e+07   3.11e-31
  1.1321e+07   2.63e-31
  1.1684e+07   2.26e-31
  1.2059e+07   1.98e-31
  1.2446e+07   1.69e-31
  1.2845e+07   1.40e-31
  1.3256e+07   1.28e-31
  1.3681e+07   1.15e-31
  1.4120e+07   9.75e-32
  1.4573e+07   7.79e-32
  1.5040e+07   5.63e-32
  1.5522e+07   3.92e-32
  1.6020e+07   2.62e-32
