#  E [MeV]   Flux [# cm^{-2} s^{-1}  MeV^{-1}]
  3.0000e+04   5.22e-26
  3.1232e+04   4.99e-26
  3.2514e+04   4.77e-26
  3.3849e+04   4.56e-26
  3.5238e+04   4.36e-26
  3.6685e+04   4.16e-26
  3.8191e+04   3.98e-26
  3.9759e+04   3.80e-26
  4.1391e+04   3.63e-26
  4.3090e+04   3.47e-26
  4.4859e+04   3.31e-26
  4.6701e+04   3.16e-26
  4.8618e+04   3.02e-26
  5.0614e+04   2.88e-26
  5.2692e+04   2.75e-26
  5.4855e+04   2.63e-26
  5.7107e+04   2.51e-26
  5.9451e+04   2.39e-26
  6.1892e+04   2.29e-26
  6.4433e+04   2.18e-26
  6.7078e+04   2.08e-26
  6.9832e+04   1.98e-26
  7.2699e+04   1.89e-26
  7.5683e+04   1.81e-26
  7.8790e+04   1.72e-26
  8.2025e+04   1.64e-26
  8.5392e+04   1.56e-26
  8.8898e+04   1.49e-26
  9.2547e+04   1.42e-26
  9.6347e+04   1.35e-26
  1.0030e+05   1.29e-26
  1.0442e+05   1.23e-26
  1.0871e+05   1.17e-26
  1.1317e+05   1.11e-26
  1.1782e+05   1.06e-26
  1.2265e+05   1.01e-26
  1.2769e+05   9.60e-27
  1.3293e+05   9.14e-27
  1.3839e+05   8.69e-27
  1.4407e+05   8.26e-27
  1.4998e+05   7.85e-27
  1.5614e+05   7.45e-27
  1.6255e+05   7.08e-27
  1.6922e+05   6.72e-27
  1.7617e+05   6.37e-27
  1.8340e+05   6.05e-27
  1.9093e+05   5.73e-27
  1.9877e+05   5.43e-27
  2.0693e+05   5.15e-27
  2.1543e+05   4.87e-27
  2.2427e+05   4.61e-27
  2.3348e+05   4.36e-27
  2.4306e+05   4.12e-27
  2.5304e+05   3.89e-27
  2.6343e+05   3.68e-27
  2.7424e+05   3.47e-27
  2.8550e+05   3.27e-27
  2.9722e+05   3.08e-27
  3.0942e+05   2.90e-27
  3.2213e+05   2.72e-27
  3.3535e+05   2.56e-27
  3.4912e+05   2.40e-27
  3.6345e+05   2.26e-27
  3.7837e+05   2.11e-27
  3.9390e+05   1.98e-27
  4.1008e+05   1.85e-27
  4.2691e+05   1.73e-27
  4.4444e+05   1.62e-27
  4.6268e+05   1.51e-27
  4.8168e+05   1.41e-27
  5.0145e+05   1.31e-27
  5.2204e+05   1.22e-27
  5.4347e+05   1.14e-27
  5.6578e+05   1.06e-27
  5.8901e+05   9.82e-28
  6.1319e+05   9.12e-28
  6.3836e+05   8.45e-28
  6.6457e+05   7.83e-28
  6.9185e+05   7.26e-28
  7.2025e+05   6.72e-28
  7.4982e+05   6.21e-28
  7.8061e+05   5.75e-28
  8.1265e+05   5.31e-28
  8.4601e+05   4.91e-28
  8.8075e+05   4.53e-28
  9.1690e+05   4.19e-28
  9.5455e+05   3.87e-28
  9.9373e+05   3.57e-28
  1.0345e+06   3.29e-28
  1.0770e+06   3.04e-28
  1.1212e+06   2.80e-28
  1.1672e+06   2.59e-28
  1.2152e+06   2.38e-28
  1.2650e+06   2.20e-28
  1.3170e+06   2.03e-28
  1.3711e+06   1.87e-28
  1.4273e+06   1.73e-28
  1.4859e+06   1.59e-28
  1.5469e+06   1.47e-28
  1.6104e+06   1.35e-28
  1.6766e+06   1.25e-28
  1.7454e+06   1.15e-28
  1.8170e+06   1.06e-28
  1.8916e+06   9.77e-29
  1.9693e+06   9.00e-29
  2.0501e+06   8.29e-29
  2.1343e+06   7.63e-29
  2.2219e+06   7.02e-29
  2.3131e+06   6.46e-29
  2.4081e+06   5.93e-29
  2.5070e+06   5.45e-29
  2.6099e+06   5.00e-29
  2.7170e+06   4.58e-29
  2.8286e+06   4.20e-29
  2.9447e+06   3.85e-29
  3.0656e+06   3.52e-29
  3.1914e+06   3.22e-29
  3.3225e+06   2.93e-29
  3.4589e+06   2.67e-29
  3.6008e+06   2.43e-29
  3.7487e+06   2.21e-29
  3.9026e+06   2.01e-29
  4.0628e+06   1.82e-29
  4.2296e+06   1.64e-29
  4.4032e+06   1.49e-29
  4.5840e+06   1.34e-29
  4.7722e+06   1.20e-29
  4.9681e+06   1.08e-29
  5.1720e+06   9.66e-30
  5.3844e+06   8.61e-30
  5.6054e+06   7.68e-30
  5.8355e+06   6.81e-30
  6.0751e+06   6.03e-30
  6.3245e+06   5.32e-30
  6.5841e+06   4.68e-30
  6.8544e+06   4.09e-30
  7.1358e+06   3.58e-30
  7.4288e+06   3.10e-30
  7.7338e+06   2.68e-30
  8.0513e+06   2.31e-30
  8.3818e+06   1.98e-30
  8.7259e+06   1.68e-30
  9.0841e+06   1.42e-30
  9.4571e+06   1.19e-30
  9.8453e+06   9.93e-31
  1.0249e+07   8.21e-31
  1.0670e+07   6.70e-31
  1.1108e+07   5.45e-31
  1.1564e+07   4.37e-31
  1.2039e+07   3.45e-31
  1.2533e+07   2.71e-31
  1.3048e+07   2.08e-31
  1.3584e+07   1.58e-31
  1.4141e+07   1.17e-31
  1.4722e+07   8.55e-32
  1.5326e+07   6.07e-32
  1.5955e+07   4.22e-32
  1.6610e+07   2.83e-32
  1.7292e+07   1.84e-32
  1.8002e+07   1.15e-32
  1.8741e+07   6.87e-33
  1.9511e+07   3.91e-33
  2.0312e+07   2.10e-33
  2.1145e+07   1.04e-33
  2.2013e+07   4.83e-34
  2.2917e+07   2.03e-34
  2.3858e+07   7.60e-35
  2.4837e+07   2.52e-35
  2.5857e+07   7.13e-36
  2.6919e+07   1.67e-36
  2.8024e+07   3.15e-37
  2.9174e+07   4.53e-38
  3.0372e+07   4.68e-39
  3.1619e+07   3.27e-40
  3.2917e+07   1.39e-41
  3.4268e+07   3.22e-43
  3.5675e+07   3.51e-45
  3.7140e+07   1.47e-47
  3.8664e+07   1.84e-50
  4.0252e+07   4.95e-54
  4.1904e+07   1.82e-58
  4.3624e+07   5.12e-64
  4.5415e+07   4.91e-71
  4.7280e+07   1.24e-71
  4.9221e+07   1.20e-71
  5.1241e+07   1.16e-71
  5.3345e+07   1.13e-71
  5.5535e+07   1.12e-71
  5.7815e+07   1.12e-71
  6.0188e+07   1.12e-71
  6.2659e+07   1.17e-71
  6.5232e+07   1.21e-71
  6.7910e+07   1.27e-71
  7.0698e+07   1.44e-71
  7.3600e+07   1.59e-71
  7.6621e+07   1.91e-71
  7.9767e+07   2.62e-71
  8.3042e+07   3.28e-71
  8.6451e+07   4.32e-71
  9.0000e+07   5.84e-71
