#  E [MeV]   Flux [# cm^{-2} s^{-1}  MeV^{-1}]
  3.0000e+04   1.25e-19
  3.0943e+04   1.21e-19
  3.1916e+04   1.17e-19
  3.2920e+04   1.13e-19
  3.3955e+04   1.09e-19
  3.5023e+04   1.06e-19
  3.6124e+04   1.02e-19
  3.7260e+04   9.86e-20
  3.8432e+04   9.53e-20
  3.9640e+04   9.21e-20
  4.0887e+04   8.90e-20
  4.2172e+04   8.59e-20
  4.3499e+04   8.30e-20
  4.4866e+04   8.01e-20
  4.6277e+04   7.72e-20
  4.7732e+04   7.45e-20
  4.9233e+04   7.19e-20
  5.0781e+04   6.93e-20
  5.2378e+04   6.68e-20
  5.4025e+04   6.44e-20
  5.5724e+04   6.21e-20
  5.7476e+04   5.98e-20
  5.9284e+04   5.76e-20
  6.1148e+04   5.54e-20
  6.3071e+04   5.34e-20
  6.5054e+04   5.13e-20
  6.7100e+04   4.94e-20
  6.9210e+04   4.75e-20
  7.1386e+04   4.57e-20
  7.3631e+04   4.39e-20
  7.5946e+04   4.22e-20
  7.8334e+04   4.06e-20
  8.0797e+04   3.89e-20
  8.3338e+04   3.74e-20
  8.5959e+04   3.59e-20
  8.8662e+04   3.44e-20
  9.1450e+04   3.30e-20
  9.4325e+04   3.17e-20
  9.7291e+04   3.03e-20
  1.0035e+05   2.91e-20
  1.0351e+05   2.78e-20
  1.0676e+05   2.66e-20
  1.1012e+05   2.55e-20
  1.1358e+05   2.44e-20
  1.1715e+05   2.33e-20
  1.2084e+05   2.23e-20
  1.2464e+05   2.13e-20
  1.2856e+05   2.04e-20
  1.3260e+05   1.94e-20
  1.3677e+05   1.86e-20
  1.4107e+05   1.77e-20
  1.4550e+05   1.69e-20
  1.5008e+05   1.61e-20
  1.5480e+05   1.54e-20
  1.5967e+05   1.46e-20
  1.6469e+05   1.39e-20
  1.6987e+05   1.33e-20
  1.7521e+05   1.26e-20
  1.8072e+05   1.20e-20
  1.8640e+05   1.14e-20
  1.9226e+05   1.08e-20
  1.9831e+05   1.03e-20
  2.0454e+05   9.77e-21
  2.1097e+05   9.27e-21
  2.1761e+05   8.79e-21
  2.2445e+05   8.34e-21
  2.3151e+05   7.91e-21
  2.3879e+05   7.49e-21
  2.4630e+05   7.10e-21
  2.5404e+05   6.72e-21
  2.6203e+05   6.36e-21
  2.7027e+05   6.02e-21
  2.7877e+05   5.69e-21
  2.8753e+05   5.38e-21
  2.9657e+05   5.09e-21
  3.0590e+05   4.81e-21
  3.1552e+05   4.54e-21
  3.2544e+05   4.28e-21
  3.3567e+05   4.04e-21
  3.4623e+05   3.81e-21
  3.5712e+05   3.59e-21
  3.6835e+05   3.38e-21
  3.7993e+05   3.18e-21
  3.9188e+05   2.99e-21
  4.0420e+05   2.81e-21
  4.1691e+05   2.64e-21
  4.3002e+05   2.48e-21
  4.4354e+05   2.32e-21
  4.5749e+05   2.18e-21
  4.7187e+05   2.04e-21
  4.8671e+05   1.91e-21
  5.0202e+05   1.79e-21
  5.1780e+05   1.68e-21
  5.3409e+05   1.57e-21
  5.5088e+05   1.46e-21
  5.6820e+05   1.37e-21
  5.8607e+05   1.28e-21
  6.0450e+05   1.19e-21
  6.2351e+05   1.11e-21
  6.4311e+05   1.03e-21
  6.6334e+05   9.64e-22
  6.8419e+05   8.96e-22
  7.0571e+05   8.33e-22
  7.2790e+05   7.75e-22
  7.5079e+05   7.19e-22
  7.7440e+05   6.67e-22
  7.9875e+05   6.18e-22
  8.2387e+05   5.73e-22
  8.4977e+05   5.31e-22
  8.7649e+05   4.90e-22
  9.0405e+05   4.54e-22
  9.3248e+05   4.20e-22
  9.6180e+05   3.88e-22
  9.9205e+05   3.57e-22
  1.0232e+06   3.30e-22
  1.0554e+06   3.04e-22
  1.0886e+06   2.80e-22
  1.1228e+06   2.58e-22
  1.1581e+06   2.37e-22
  1.1946e+06   2.18e-22
  1.2321e+06   2.00e-22
  1.2709e+06   1.84e-22
  1.3108e+06   1.69e-22
  1.3521e+06   1.55e-22
  1.3946e+06   1.41e-22
  1.4384e+06   1.30e-22
  1.4837e+06   1.19e-22
  1.5303e+06   1.08e-22
  1.5784e+06   9.85e-23
  1.6281e+06   9.02e-23
  1.6793e+06   8.22e-23
  1.7321e+06   7.47e-23
  1.7865e+06   6.80e-23
  1.8427e+06   6.21e-23
  1.9006e+06   5.64e-23
  1.9604e+06   5.10e-23
  2.0221e+06   4.64e-23
  2.0856e+06   4.22e-23
  2.1512e+06   3.82e-23
  2.2189e+06   3.44e-23
  2.2886e+06   3.13e-23
  2.3606e+06   2.84e-23
  2.4348e+06   2.55e-23
  2.5114e+06   2.30e-23
  2.5904e+06   2.09e-23
  2.6718e+06   1.88e-23
  2.7558e+06   1.69e-23
  2.8425e+06   1.52e-23
  2.9319e+06   1.37e-23
  3.0241e+06   1.23e-23
  3.1192e+06   1.10e-23
  3.2173e+06   9.91e-24
  3.3184e+06   8.91e-24
  3.4228e+06   7.95e-24
  3.5304e+06   7.09e-24
  3.6414e+06   6.38e-24
  3.7559e+06   5.71e-24
  3.8740e+06   5.07e-24
  3.9958e+06   4.53e-24
  4.1215e+06   4.06e-24
  4.2511e+06   3.62e-24
  4.3848e+06   3.20e-24
  4.5227e+06   2.86e-24
  4.6649e+06   2.56e-24
  4.8116e+06   2.27e-24
  4.9629e+06   2.00e-24
  5.1189e+06   1.79e-24
  5.2799e+06   1.60e-24
  5.4459e+06   1.41e-24
  5.6171e+06   1.25e-24
  5.7938e+06   1.12e-24
  5.9760e+06   9.93e-25
  6.1639e+06   8.75e-25
  6.3577e+06   7.76e-25
  6.5576e+06   6.90e-25
  6.7638e+06   6.08e-25
  6.9765e+06   5.30e-25
  7.1959e+06   4.73e-25
  7.4222e+06   4.20e-25
  7.6556e+06   3.69e-25
  7.8963e+06   3.24e-25
  8.1446e+06   2.91e-25
  8.4007e+06   2.59e-25
  8.6649e+06   2.28e-25
  8.9373e+06   2.04e-25
  9.2184e+06   1.84e-25
  9.5082e+06   1.66e-25
  9.8072e+06   1.49e-25
  1.0116e+07   1.35e-25
  1.0434e+07   1.24e-25
  1.0762e+07   1.13e-25
  1.1100e+07   1.03e-25
  1.1449e+07   9.54e-26
  1.1809e+07   8.87e-26
  1.2181e+07   8.22e-26
  1.2564e+07   7.65e-26
  1.2959e+07   7.17e-26
  1.3366e+07   6.71e-26
  1.3786e+07   6.27e-26
  1.4220e+07   5.87e-26
