#  E [GeV]   # per interaction  [GeV^{-1}]
  3.0000e+01   5.65e-01
  3.0872e+01   5.44e-01
  3.1770e+01   5.24e-01
  3.2694e+01   5.04e-01
  3.3644e+01   4.85e-01
  3.4623e+01   4.67e-01
  3.5629e+01   4.50e-01
  3.6665e+01   4.33e-01
  3.7731e+01   4.16e-01
  3.8829e+01   4.01e-01
  3.9958e+01   3.86e-01
  4.1119e+01   3.71e-01
  4.2315e+01   3.57e-01
  4.3545e+01   3.43e-01
  4.4812e+01   3.30e-01
  4.6115e+01   3.17e-01
  4.7456e+01   3.05e-01
  4.8835e+01   2.93e-01
  5.0255e+01   2.82e-01
  5.1717e+01   2.71e-01
  5.3220e+01   2.60e-01
  5.4768e+01   2.50e-01
  5.6360e+01   2.40e-01
  5.7999e+01   2.31e-01
  5.9686e+01   2.22e-01
  6.1421e+01   2.13e-01
  6.3207e+01   2.04e-01
  6.5045e+01   1.96e-01
  6.6936e+01   1.88e-01
  6.8882e+01   1.80e-01
  7.0885e+01   1.73e-01
  7.2947e+01   1.66e-01
  7.5068e+01   1.59e-01
  7.7250e+01   1.52e-01
  7.9496e+01   1.46e-01
  8.1808e+01   1.40e-01
  8.4187e+01   1.34e-01
  8.6635e+01   1.28e-01
  8.9154e+01   1.23e-01
  9.1746e+01   1.17e-01
  9.4414e+01   1.12e-01
  9.7159e+01   1.07e-01
  9.9984e+01   1.02e-01
  1.0289e+02   9.77e-02
  1.0588e+02   9.32e-02
  1.0896e+02   8.89e-02
  1.1213e+02   8.47e-02
  1.1539e+02   8.07e-02
  1.1875e+02   7.69e-02
  1.2220e+02   7.32e-02
  1.2575e+02   6.97e-02
  1.2941e+02   6.63e-02
  1.3317e+02   6.31e-02
  1.3704e+02   6.00e-02
  1.4103e+02   5.71e-02
  1.4513e+02   5.42e-02
  1.4935e+02   5.15e-02
  1.5369e+02   4.90e-02
  1.5816e+02   4.65e-02
  1.6276e+02   4.42e-02
  1.6749e+02   4.19e-02
  1.7236e+02   3.98e-02
  1.7737e+02   3.78e-02
  1.8253e+02   3.58e-02
  1.8784e+02   3.39e-02
  1.9330e+02   3.21e-02
  1.9892e+02   3.04e-02
  2.0470e+02   2.88e-02
  2.1066e+02   2.72e-02
  2.1678e+02   2.57e-02
  2.2309e+02   2.43e-02
  2.2957e+02   2.29e-02
  2.3625e+02   2.16e-02
  2.4312e+02   2.03e-02
  2.5019e+02   1.92e-02
  2.5746e+02   1.80e-02
  2.6495e+02   1.69e-02
  2.7265e+02   1.59e-02
  2.8058e+02   1.49e-02
  2.8874e+02   1.40e-02
  2.9713e+02   1.31e-02
  3.0577e+02   1.23e-02
  3.1466e+02   1.15e-02
  3.2381e+02   1.08e-02
  3.3323e+02   1.00e-02
  3.4292e+02   9.38e-03
  3.5289e+02   8.74e-03
  3.6315e+02   8.14e-03
  3.7371e+02   7.57e-03
  3.8457e+02   7.05e-03
  3.9576e+02   6.55e-03
  4.0726e+02   6.07e-03
  4.1911e+02   5.62e-03
  4.3129e+02   5.21e-03
  4.4383e+02   4.82e-03
  4.5674e+02   4.45e-03
  4.7002e+02   4.10e-03
  4.8368e+02   3.79e-03
  4.9775e+02   3.49e-03
  5.1222e+02   3.21e-03
  5.2712e+02   2.94e-03
  5.4244e+02   2.71e-03
  5.5821e+02   2.48e-03
  5.7445e+02   2.27e-03
  5.9115e+02   2.08e-03
  6.0834e+02   1.90e-03
  6.2603e+02   1.74e-03
  6.4423e+02   1.59e-03
  6.6296e+02   1.45e-03
  6.8224e+02   1.32e-03
  7.0208e+02   1.20e-03
  7.2249e+02   1.09e-03
  7.4350e+02   9.90e-04
  7.6512e+02   9.00e-04
  7.8736e+02   8.17e-04
  8.1026e+02   7.40e-04
  8.3382e+02   6.68e-04
  8.5806e+02   6.06e-04
  8.8301e+02   5.47e-04
  9.0869e+02   4.93e-04
  9.3511e+02   4.44e-04
  9.6230e+02   4.01e-04
  9.9028e+02   3.61e-04
  1.0191e+03   3.25e-04
  1.0487e+03   2.91e-04
  1.0792e+03   2.62e-04
  1.1106e+03   2.36e-04
  1.1429e+03   2.11e-04
  1.1761e+03   1.89e-04
  1.2103e+03   1.70e-04
  1.2455e+03   1.52e-04
  1.2817e+03   1.36e-04
  1.3190e+03   1.21e-04
  1.3573e+03   1.09e-04
  1.3968e+03   9.71e-05
  1.4374e+03   8.64e-05
  1.4792e+03   7.66e-05
  1.5222e+03   6.86e-05
  1.5665e+03   6.12e-05
  1.6120e+03   5.43e-05
  1.6589e+03   4.79e-05
  1.7071e+03   4.28e-05
  1.7568e+03   3.81e-05
  1.8079e+03   3.36e-05
  1.8604e+03   2.95e-05
  1.9145e+03   2.63e-05
  1.9702e+03   2.33e-05
  2.0275e+03   2.05e-05
  2.0864e+03   1.79e-05
  2.1471e+03   1.59e-05
  2.2095e+03   1.41e-05
  2.2738e+03   1.23e-05
  2.3399e+03   1.07e-05
  2.4079e+03   9.52e-06
  2.4779e+03   8.38e-06
  2.5500e+03   7.31e-06
  2.6241e+03   6.32e-06
  2.7004e+03   5.59e-06
  2.7790e+03   4.90e-06
  2.8598e+03   4.26e-06
  2.9429e+03   3.66e-06
  3.0285e+03   3.23e-06
  3.1165e+03   2.83e-06
  3.2072e+03   2.45e-06
  3.3004e+03   2.09e-06
  3.3964e+03   1.84e-06
  3.4951e+03   1.61e-06
  3.5968e+03   1.39e-06
  3.7013e+03   1.18e-06
  3.8090e+03   1.04e-06
  3.9197e+03   9.05e-07
  4.0337e+03   7.81e-07
  4.1510e+03   6.66e-07
  4.2717e+03   5.85e-07
  4.3959e+03   5.11e-07
  4.5237e+03   4.43e-07
  4.6552e+03   3.79e-07
  4.7906e+03   3.33e-07
  4.9299e+03   2.92e-07
  5.0732e+03   2.54e-07
  5.2208e+03   2.19e-07
  5.3726e+03   1.94e-07
  5.5288e+03   1.71e-07
  5.6895e+03   1.50e-07
  5.8550e+03   1.31e-07
  6.0252e+03   1.17e-07
  6.2004e+03   1.03e-07
  6.3807e+03   9.12e-08
  6.5662e+03   8.00e-08
  6.7572e+03   7.05e-08
  6.9536e+03   6.19e-08
  7.1558e+03   5.40e-08
  7.3639e+03   4.68e-08
  7.5780e+03   4.04e-08
  7.7984e+03   3.48e-08
  8.0251e+03   2.96e-08
  8.2585e+03   2.50e-08
  8.4986e+03   2.14e-08
  8.7457e+03   1.83e-08
  9.0000e+03   1.55e-08
