#  E [MeV]   Flux [# cm^{-2} s^{-1}  MeV^{-1}]
  3.0000e+04   2.27e-19
  3.1033e+04   2.19e-19
  3.2102e+04   2.12e-19
  3.3207e+04   2.04e-19
  3.4350e+04   1.97e-19
  3.5533e+04   1.90e-19
  3.6757e+04   1.84e-19
  3.8022e+04   1.77e-19
  3.9332e+04   1.71e-19
  4.0686e+04   1.65e-19
  4.2087e+04   1.59e-19
  4.3536e+04   1.53e-19
  4.5035e+04   1.48e-19
  4.6586e+04   1.42e-19
  4.8190e+04   1.37e-19
  4.9850e+04   1.32e-19
  5.1566e+04   1.27e-19
  5.3342e+04   1.23e-19
  5.5178e+04   1.18e-19
  5.7078e+04   1.14e-19
  5.9044e+04   1.10e-19
  6.1077e+04   1.05e-19
  6.3180e+04   1.02e-19
  6.5356e+04   9.76e-20
  6.7606e+04   9.39e-20
  6.9934e+04   9.04e-20
  7.2342e+04   8.69e-20
  7.4833e+04   8.35e-20
  7.7410e+04   8.03e-20
  8.0075e+04   7.72e-20
  8.2833e+04   7.41e-20
  8.5685e+04   7.12e-20
  8.8635e+04   6.83e-20
  9.1687e+04   6.56e-20
  9.4844e+04   6.29e-20
  9.8110e+04   6.04e-20
  1.0149e+05   5.79e-20
  1.0498e+05   5.55e-20
  1.0860e+05   5.32e-20
  1.1234e+05   5.10e-20
  1.1621e+05   4.88e-20
  1.2021e+05   4.67e-20
  1.2435e+05   4.48e-20
  1.2863e+05   4.28e-20
  1.3306e+05   4.10e-20
  1.3764e+05   3.92e-20
  1.4238e+05   3.75e-20
  1.4728e+05   3.58e-20
  1.5235e+05   3.42e-20
  1.5760e+05   3.27e-20
  1.6302e+05   3.12e-20
  1.6864e+05   2.97e-20
  1.7445e+05   2.84e-20
  1.8045e+05   2.70e-20
  1.8667e+05   2.58e-20
  1.9309e+05   2.45e-20
  1.9974e+05   2.34e-20
  2.0662e+05   2.22e-20
  2.1373e+05   2.12e-20
  2.2109e+05   2.01e-20
  2.2871e+05   1.91e-20
  2.3658e+05   1.82e-20
  2.4473e+05   1.73e-20
  2.5316e+05   1.64e-20
  2.6187e+05   1.55e-20
  2.7089e+05   1.47e-20
  2.8022e+05   1.40e-20
  2.8987e+05   1.32e-20
  2.9985e+05   1.25e-20
  3.1017e+05   1.19e-20
  3.2085e+05   1.12e-20
  3.3190e+05   1.06e-20
  3.4333e+05   1.00e-20
  3.5515e+05   9.46e-21
  3.6738e+05   8.93e-21
  3.8003e+05   8.43e-21
  3.9312e+05   7.95e-21
  4.0665e+05   7.50e-21
  4.2066e+05   7.07e-21
  4.3514e+05   6.66e-21
  4.5013e+05   6.27e-21
  4.6562e+05   5.90e-21
  4.8166e+05   5.55e-21
  4.9824e+05   5.22e-21
  5.1540e+05   4.90e-21
  5.3315e+05   4.61e-21
  5.5150e+05   4.32e-21
  5.7050e+05   4.06e-21
  5.9014e+05   3.81e-21
  6.1046e+05   3.57e-21
  6.3148e+05   3.34e-21
  6.5322e+05   3.13e-21
  6.7572e+05   2.93e-21
  6.9898e+05   2.73e-21
  7.2305e+05   2.56e-21
  7.4795e+05   2.39e-21
  7.7371e+05   2.23e-21
  8.0035e+05   2.08e-21
  8.2791e+05   1.94e-21
  8.5641e+05   1.80e-21
  8.8590e+05   1.68e-21
  9.1641e+05   1.56e-21
  9.4796e+05   1.45e-21
  9.8061e+05   1.35e-21
  1.0144e+06   1.25e-21
  1.0493e+06   1.16e-21
  1.0854e+06   1.08e-21
  1.1228e+06   1.00e-21
  1.1615e+06   9.27e-22
  1.2015e+06   8.59e-22
  1.2428e+06   7.94e-22
  1.2856e+06   7.34e-22
  1.3299e+06   6.78e-22
  1.3757e+06   6.26e-22
  1.4231e+06   5.77e-22
  1.4721e+06   5.32e-22
  1.5228e+06   4.90e-22
  1.5752e+06   4.50e-22
  1.6294e+06   4.15e-22
  1.6855e+06   3.81e-22
  1.7436e+06   3.50e-22
  1.8036e+06   3.21e-22
  1.8657e+06   2.95e-22
  1.9300e+06   2.70e-22
  1.9964e+06   2.46e-22
  2.0652e+06   2.26e-22
  2.1363e+06   2.06e-22
  2.2098e+06   1.88e-22
  2.2859e+06   1.72e-22
  2.3646e+06   1.57e-22
  2.4461e+06   1.42e-22
  2.5303e+06   1.30e-22
  2.6174e+06   1.18e-22
  2.7075e+06   1.07e-22
  2.8008e+06   9.67e-23
  2.8972e+06   8.80e-23
  2.9970e+06   7.97e-23
  3.1002e+06   7.19e-23
  3.2069e+06   6.50e-23
  3.3173e+06   5.89e-23
  3.4316e+06   5.30e-23
  3.5497e+06   4.77e-23
  3.6720e+06   4.31e-23
  3.7984e+06   3.87e-23
  3.9292e+06   3.47e-23
  4.0645e+06   3.12e-23
  4.2044e+06   2.80e-23
  4.3492e+06   2.51e-23
  4.4990e+06   2.24e-23
  4.6539e+06   2.01e-23
  4.8141e+06   1.80e-23
  4.9799e+06   1.59e-23
  5.1514e+06   1.43e-23
  5.3288e+06   1.27e-23
  5.5123e+06   1.13e-23
  5.7021e+06   1.00e-23
  5.8984e+06   8.92e-24
  6.1015e+06   7.89e-24
  6.3116e+06   6.96e-24
  6.5289e+06   6.19e-24
  6.7538e+06   5.48e-24
  6.9863e+06   4.80e-24
  7.2269e+06   4.26e-24
  7.4757e+06   3.76e-24
  7.7331e+06   3.30e-24
  7.9994e+06   2.89e-24
  8.2749e+06   2.56e-24
  8.5598e+06   2.24e-24
  8.8546e+06   1.95e-24
  9.1594e+06   1.72e-24
  9.4748e+06   1.51e-24
  9.8011e+06   1.31e-24
  1.0139e+07   1.14e-24
  1.0488e+07   1.00e-24
  1.0849e+07   8.72e-25
  1.1222e+07   7.54e-25
  1.1609e+07   6.59e-25
  1.2009e+07   5.71e-25
  1.2422e+07   4.90e-25
  1.2850e+07   4.27e-25
  1.3292e+07   3.70e-25
  1.3750e+07   3.18e-25
  1.4223e+07   2.74e-25
  1.4713e+07   2.39e-25
  1.5220e+07   2.07e-25
  1.5744e+07   1.77e-25
  1.6286e+07   1.55e-25
  1.6847e+07   1.36e-25
  1.7427e+07   1.18e-25
  1.8027e+07   1.03e-25
  1.8648e+07   9.07e-26
  1.9290e+07   7.94e-26
  1.9954e+07   6.93e-26
  2.0641e+07   6.14e-26
  2.1352e+07   5.40e-26
  2.2087e+07   4.72e-26
  2.2848e+07   4.14e-26
  2.3634e+07   3.60e-26
  2.4448e+07   3.11e-26
  2.5290e+07   2.66e-26
