#  E [GeV]   # per interaction  [GeV^{-1}]
  3.0000e+01   6.53e-01
  3.1141e+01   6.27e-01
  3.2326e+01   6.03e-01
  3.3556e+01   5.79e-01
  3.4832e+01   5.56e-01
  3.6157e+01   5.34e-01
  3.7533e+01   5.13e-01
  3.8961e+01   4.93e-01
  4.0443e+01   4.74e-01
  4.1982e+01   4.55e-01
  4.3579e+01   4.37e-01
  4.5237e+01   4.20e-01
  4.6958e+01   4.03e-01
  4.8744e+01   3.87e-01
  5.0598e+01   3.71e-01
  5.2523e+01   3.57e-01
  5.4521e+01   3.42e-01
  5.6596e+01   3.28e-01
  5.8749e+01   3.15e-01
  6.0984e+01   3.02e-01
  6.3304e+01   2.90e-01
  6.5712e+01   2.78e-01
  6.8212e+01   2.67e-01
  7.0807e+01   2.56e-01
  7.3500e+01   2.45e-01
  7.6297e+01   2.35e-01
  7.9199e+01   2.26e-01
  8.2212e+01   2.16e-01
  8.5340e+01   2.07e-01
  8.8586e+01   1.98e-01
  9.1956e+01   1.90e-01
  9.5455e+01   1.82e-01
  9.9086e+01   1.74e-01
  1.0286e+02   1.67e-01
  1.0677e+02   1.60e-01
  1.1083e+02   1.53e-01
  1.1505e+02   1.46e-01
  1.1942e+02   1.40e-01
  1.2397e+02   1.33e-01
  1.2868e+02   1.27e-01
  1.3358e+02   1.22e-01
  1.3866e+02   1.16e-01
  1.4394e+02   1.11e-01
  1.4941e+02   1.06e-01
  1.5509e+02   1.01e-01
  1.6100e+02   9.63e-02
  1.6712e+02   9.17e-02
  1.7348e+02   8.74e-02
  1.8008e+02   8.32e-02
  1.8693e+02   7.91e-02
  1.9404e+02   7.53e-02
  2.0142e+02   7.15e-02
  2.0908e+02   6.80e-02
  2.1704e+02   6.46e-02
  2.2529e+02   6.13e-02
  2.3387e+02   5.81e-02
  2.4276e+02   5.51e-02
  2.5200e+02   5.22e-02
  2.6158e+02   4.94e-02
  2.7154e+02   4.67e-02
  2.8187e+02   4.42e-02
  2.9259e+02   4.17e-02
  3.0372e+02   3.94e-02
  3.1527e+02   3.71e-02
  3.2727e+02   3.50e-02
  3.3972e+02   3.29e-02
  3.5264e+02   3.10e-02
  3.6606e+02   2.91e-02
  3.7998e+02   2.73e-02
  3.9444e+02   2.56e-02
  4.0945e+02   2.40e-02
  4.2502e+02   2.25e-02
  4.4119e+02   2.10e-02
  4.5798e+02   1.97e-02
  4.7540e+02   1.84e-02
  4.9348e+02   1.71e-02
  5.1226e+02   1.60e-02
  5.3175e+02   1.49e-02
  5.5198e+02   1.39e-02
  5.7297e+02   1.29e-02
  5.9477e+02   1.20e-02
  6.1740e+02   1.11e-02
  6.4089e+02   1.03e-02
  6.6527e+02   9.57e-03
  6.9058e+02   8.87e-03
  7.1685e+02   8.21e-03
  7.4412e+02   7.60e-03
  7.7243e+02   7.03e-03
  8.0181e+02   6.50e-03
  8.3232e+02   6.01e-03
  8.6398e+02   5.55e-03
  8.9685e+02   5.13e-03
  9.3097e+02   4.73e-03
  9.6638e+02   4.37e-03
  1.0031e+03   4.03e-03
  1.0413e+03   3.72e-03
  1.0809e+03   3.43e-03
  1.1220e+03   3.16e-03
  1.1647e+03   2.91e-03
  1.2090e+03   2.68e-03
  1.2550e+03   2.47e-03
  1.3028e+03   2.27e-03
  1.3523e+03   2.09e-03
  1.4038e+03   1.92e-03
  1.4572e+03   1.77e-03
  1.5126e+03   1.62e-03
  1.5702e+03   1.49e-03
  1.6299e+03   1.37e-03
  1.6919e+03   1.26e-03
  1.7563e+03   1.16e-03
  1.8231e+03   1.06e-03
  1.8925e+03   9.71e-04
  1.9645e+03   8.90e-04
  2.0392e+03   8.16e-04
  2.1168e+03   7.46e-04
  2.1973e+03   6.83e-04
  2.2809e+03   6.24e-04
  2.3677e+03   5.70e-04
  2.4577e+03   5.20e-04
  2.5512e+03   4.74e-04
  2.6483e+03   4.32e-04
  2.7490e+03   3.93e-04
  2.8536e+03   3.57e-04
  2.9622e+03   3.24e-04
  3.0749e+03   2.94e-04
  3.1918e+03   2.66e-04
  3.3133e+03   2.41e-04
  3.4393e+03   2.17e-04
  3.5702e+03   1.96e-04
  3.7060e+03   1.77e-04
  3.8470e+03   1.59e-04
  3.9933e+03   1.43e-04
  4.1452e+03   1.28e-04
  4.3029e+03   1.14e-04
  4.4666e+03   1.02e-04
  4.6366e+03   9.10e-05
  4.8129e+03   8.07e-05
  4.9960e+03   7.18e-05
  5.1861e+03   6.36e-05
  5.3834e+03   5.59e-05
  5.5882e+03   4.94e-05
  5.8008e+03   4.34e-05
  6.0215e+03   3.79e-05
  6.2506e+03   3.32e-05
  6.4883e+03   2.89e-05
  6.7352e+03   2.50e-05
  6.9914e+03   2.17e-05
  7.2574e+03   1.87e-05
  7.5335e+03   1.60e-05
  7.8201e+03   1.37e-05
  8.1176e+03   1.17e-05
  8.4264e+03   9.87e-06
  8.7470e+03   8.33e-06
  9.0797e+03   7.00e-06
  9.4251e+03   5.82e-06
  9.7837e+03   4.82e-06
  1.0156e+04   3.97e-06
  1.0542e+04   3.23e-06
  1.0943e+04   2.62e-06
  1.1360e+04   2.11e-06
  1.1792e+04   1.67e-06
  1.2240e+04   1.31e-06
  1.2706e+04   1.03e-06
  1.3189e+04   7.88e-07
  1.3691e+04   5.95e-07
  1.4212e+04   4.47e-07
  1.4753e+04   3.27e-07
  1.5314e+04   2.34e-07
  1.5897e+04   1.67e-07
  1.6501e+04   1.15e-07
  1.7129e+04   7.64e-08
  1.7781e+04   5.02e-08
  1.8457e+04   3.16e-08
  1.9159e+04   1.90e-08
  1.9888e+04   1.11e-08
  2.0645e+04   6.13e-09
  2.1430e+04   3.16e-09
  2.2245e+04   1.55e-09
  2.3092e+04   7.00e-10
  2.3970e+04   2.85e-10
  2.4882e+04   1.07e-10
  2.5829e+04   3.52e-11
  2.6811e+04   9.91e-12
  2.7831e+04   2.40e-12
  2.8890e+04   4.74e-13
  2.9989e+04   7.23e-14
  3.1130e+04   8.39e-15
  3.2314e+04   6.84e-16
  3.3544e+04   3.58e-17
  3.4820e+04   1.12e-18
  3.6144e+04   1.85e-20
  3.7519e+04   1.34e-22
  3.8947e+04   3.60e-25
  4.0428e+04   2.74e-28
  4.1966e+04   4.16e-32
  4.3563e+04   8.17e-37
  4.5220e+04   1.15e-42
  4.6941e+04   1.01e-47
  4.8726e+04   9.37e-48
  5.0580e+04   8.77e-48
