#  E [MeV]   Flux [# cm^{-2} s^{-1}  MeV^{-1}]
  3.0000e+04   4.11e-20
  3.1033e+04   3.94e-20
  3.2102e+04   3.78e-20
  3.3207e+04   3.62e-20
  3.4350e+04   3.47e-20
  3.5533e+04   3.32e-20
  3.6757e+04   3.18e-20
  3.8022e+04   3.05e-20
  3.9332e+04   2.92e-20
  4.0686e+04   2.79e-20
  4.2087e+04   2.68e-20
  4.3536e+04   2.56e-20
  4.5035e+04   2.45e-20
  4.6586e+04   2.34e-20
  4.8190e+04   2.24e-20
  4.9850e+04   2.15e-20
  5.1566e+04   2.05e-20
  5.3342e+04   1.96e-20
  5.5178e+04   1.88e-20
  5.7078e+04   1.79e-20
  5.9044e+04   1.71e-20
  6.1077e+04   1.64e-20
  6.3180e+04   1.56e-20
  6.5356e+04   1.49e-20
  6.7606e+04   1.43e-20
  6.9934e+04   1.36e-20
  7.2342e+04   1.30e-20
  7.4833e+04   1.24e-20
  7.7410e+04   1.18e-20
  8.0075e+04   1.13e-20
  8.2833e+04   1.08e-20
  8.5685e+04   1.03e-20
  8.8635e+04   9.80e-21
  9.1687e+04   9.34e-21
  9.4844e+04   8.90e-21
  9.8110e+04   8.48e-21
  1.0149e+05   8.07e-21
  1.0498e+05   7.69e-21
  1.0860e+05   7.32e-21
  1.1234e+05   6.96e-21
  1.1621e+05   6.63e-21
  1.2021e+05   6.30e-21
  1.2435e+05   5.99e-21
  1.2863e+05   5.70e-21
  1.3306e+05   5.41e-21
  1.3764e+05   5.14e-21
  1.4238e+05   4.88e-21
  1.4728e+05   4.64e-21
  1.5235e+05   4.40e-21
  1.5760e+05   4.17e-21
  1.6302e+05   3.95e-21
  1.6864e+05   3.75e-21
  1.7445e+05   3.55e-21
  1.8045e+05   3.36e-21
  1.8667e+05   3.18e-21
  1.9309e+05   3.01e-21
  1.9974e+05   2.84e-21
  2.0662e+05   2.69e-21
  2.1373e+05   2.54e-21
  2.2109e+05   2.39e-21
  2.2871e+05   2.26e-21
  2.3658e+05   2.13e-21
  2.4473e+05   2.01e-21
  2.5316e+05   1.89e-21
  2.6187e+05   1.78e-21
  2.7089e+05   1.67e-21
  2.8022e+05   1.57e-21
  2.8987e+05   1.48e-21
  2.9985e+05   1.39e-21
  3.1017e+05   1.30e-21
  3.2085e+05   1.22e-21
  3.3190e+05   1.15e-21
  3.4333e+05   1.07e-21
  3.5515e+05   1.00e-21
  3.6738e+05   9.40e-22
  3.8003e+05   8.78e-22
  3.9312e+05   8.21e-22
  4.0665e+05   7.66e-22
  4.2066e+05   7.15e-22
  4.3514e+05   6.66e-22
  4.5013e+05   6.21e-22
  4.6562e+05   5.78e-22
  4.8166e+05   5.37e-22
  4.9824e+05   4.99e-22
  5.1540e+05   4.64e-22
  5.3315e+05   4.30e-22
  5.5150e+05   3.99e-22
  5.7050e+05   3.70e-22
  5.9014e+05   3.43e-22
  6.1046e+05   3.17e-22
  6.3148e+05   2.93e-22
  6.5322e+05   2.71e-22
  6.7572e+05   2.50e-22
  6.9898e+05   2.30e-22
  7.2305e+05   2.12e-22
  7.4795e+05   1.96e-22
  7.7371e+05   1.80e-22
  8.0035e+05   1.66e-22
  8.2791e+05   1.52e-22
  8.5641e+05   1.40e-22
  8.8590e+05   1.29e-22
  9.1641e+05   1.18e-22
  9.4796e+05   1.08e-22
  9.8061e+05   9.92e-23
  1.0144e+06   9.09e-23
  1.0493e+06   8.32e-23
  1.0854e+06   7.61e-23
  1.1228e+06   6.97e-23
  1.1615e+06   6.37e-23
  1.2015e+06   5.82e-23
  1.2428e+06   5.32e-23
  1.2856e+06   4.85e-23
  1.3299e+06   4.42e-23
  1.3757e+06   4.03e-23
  1.4231e+06   3.67e-23
  1.4721e+06   3.34e-23
  1.5228e+06   3.03e-23
  1.5752e+06   2.76e-23
  1.6294e+06   2.51e-23
  1.6855e+06   2.27e-23
  1.7436e+06   2.06e-23
  1.8036e+06   1.87e-23
  1.8657e+06   1.70e-23
  1.9300e+06   1.53e-23
  1.9964e+06   1.39e-23
  2.0652e+06   1.26e-23
  2.1363e+06   1.13e-23
  2.2098e+06   1.02e-23
  2.2859e+06   9.23e-24
  2.3646e+06   8.29e-24
  2.4461e+06   7.46e-24
  2.5303e+06   6.71e-24
  2.6174e+06   6.02e-24
  2.7075e+06   5.37e-24
  2.8008e+06   4.83e-24
  2.8972e+06   4.32e-24
  2.9970e+06   3.84e-24
  3.1002e+06   3.43e-24
  3.2069e+06   3.07e-24
  3.3173e+06   2.72e-24
  3.4316e+06   2.41e-24
  3.5497e+06   2.15e-24
  3.6720e+06   1.91e-24
  3.7984e+06   1.68e-24
  3.9292e+06   1.49e-24
  4.0645e+06   1.32e-24
  4.2044e+06   1.16e-24
  4.3492e+06   1.02e-24
  4.4990e+06   8.98e-25
  4.6539e+06   7.87e-25
  4.8141e+06   6.85e-25
  4.9799e+06   6.03e-25
  5.1514e+06   5.27e-25
  5.3288e+06   4.56e-25
  5.5123e+06   3.98e-25
  5.7021e+06   3.47e-25
  5.8984e+06   3.00e-25
  6.1015e+06   2.58e-25
  6.3116e+06   2.25e-25
  6.5289e+06   1.94e-25
  6.7538e+06   1.66e-25
  6.9863e+06   1.44e-25
  7.2269e+06   1.24e-25
  7.4757e+06   1.06e-25
  7.7331e+06   9.04e-26
  7.9994e+06   7.78e-26
  8.2749e+06   6.63e-26
  8.5598e+06   5.60e-26
  8.8546e+06   4.80e-26
  9.1594e+06   4.08e-26
  9.4748e+06   3.43e-26
  9.8011e+06   2.90e-26
  1.0139e+07   2.46e-26
  1.0488e+07   2.07e-26
  1.0849e+07   1.73e-26
  1.1222e+07   1.46e-26
  1.1609e+07   1.22e-26
  1.2009e+07   1.01e-26
  1.2422e+07   8.37e-27
  1.2850e+07   6.91e-27
  1.3292e+07   5.63e-27
  1.3750e+07   4.56e-27
  1.4223e+07   3.68e-27
  1.4713e+07   2.93e-27
  1.5220e+07   2.30e-27
  1.5744e+07   1.80e-27
  1.6286e+07   1.38e-27
  1.6847e+07   1.04e-27
  1.7427e+07   7.72e-28
  1.8027e+07   5.60e-28
  1.8648e+07   3.96e-28
  1.9290e+07   2.71e-28
  1.9954e+07   1.80e-28
  2.0641e+07   1.14e-28
  2.1352e+07   6.97e-29
  2.2087e+07   4.04e-29
  2.2848e+07   2.20e-29
  2.3634e+07   1.13e-29
  2.4448e+07   5.39e-30
  2.5290e+07   2.40e-30
