#  E [MeV]   Flux [# cm^{-2} s^{-1}  MeV^{-1}]
  3.0000e+04   1.15e-19
  3.0943e+04   1.11e-19
  3.1916e+04   1.07e-19
  3.2920e+04   1.03e-19
  3.3955e+04   9.98e-20
  3.5023e+04   9.63e-20
  3.6124e+04   9.29e-20
  3.7260e+04   8.96e-20
  3.8432e+04   8.64e-20
  3.9640e+04   8.34e-20
  4.0887e+04   8.04e-20
  4.2172e+04   7.76e-20
  4.3499e+04   7.48e-20
  4.4866e+04   7.22e-20
  4.6277e+04   6.96e-20
  4.7732e+04   6.71e-20
  4.9233e+04   6.47e-20
  5.0781e+04   6.24e-20
  5.2378e+04   6.02e-20
  5.4025e+04   5.80e-20
  5.5724e+04   5.60e-20
  5.7476e+04   5.40e-20
  5.9284e+04   5.21e-20
  6.1148e+04   5.02e-20
  6.3071e+04   4.84e-20
  6.5054e+04   4.67e-20
  6.7100e+04   4.51e-20
  6.9210e+04   4.35e-20
  7.1386e+04   4.19e-20
  7.3631e+04   4.05e-20
  7.5946e+04   3.90e-20
  7.8334e+04   3.77e-20
  8.0797e+04   3.63e-20
  8.3338e+04   3.51e-20
  8.5959e+04   3.39e-20
  8.8662e+04   3.27e-20
  9.1450e+04   3.16e-20
  9.4325e+04   3.05e-20
  9.7291e+04   2.95e-20
  1.0035e+05   2.85e-20
  1.0351e+05   2.75e-20
  1.0676e+05   2.66e-20
  1.1012e+05   2.57e-20
  1.1358e+05   2.49e-20
  1.1715e+05   2.41e-20
  1.2084e+05   2.33e-20
  1.2464e+05   2.26e-20
  1.2856e+05   2.18e-20
  1.3260e+05   2.12e-20
  1.3677e+05   2.05e-20
  1.4107e+05   1.99e-20
  1.4550e+05   1.92e-20
  1.5008e+05   1.87e-20
  1.5480e+05   1.81e-20
  1.5967e+05   1.75e-20
  1.6469e+05   1.70e-20
  1.6987e+05   1.65e-20
  1.7521e+05   1.60e-20
  1.8072e+05   1.56e-20
  1.8640e+05   1.51e-20
  1.9226e+05   1.47e-20
  1.9831e+05   1.43e-20
  2.0454e+05   1.39e-20
  2.1097e+05   1.35e-20
  2.1761e+05   1.31e-20
  2.2445e+05   1.28e-20
  2.3151e+05   1.25e-20
  2.3879e+05   1.21e-20
  2.4630e+05   1.18e-20
  2.5404e+05   1.15e-20
  2.6203e+05   1.12e-20
  2.7027e+05   1.09e-20
  2.7877e+05   1.07e-20
  2.8753e+05   1.04e-20
  2.9657e+05   1.01e-20
  3.0590e+05   9.88e-21
  3.1552e+05   9.64e-21
  3.2544e+05   9.41e-21
  3.3567e+05   9.19e-21
  3.4623e+05   8.97e-21
  3.5712e+05   8.75e-21
  3.6835e+05   8.55e-21
  3.7993e+05   8.35e-21
  3.9188e+05   8.16e-21
  4.0420e+05   7.97e-21
  4.1691e+05   7.79e-21
  4.3002e+05   7.61e-21
  4.4354e+05   7.43e-21
  4.5749e+05   7.26e-21
  4.7187e+05   7.10e-21
  4.8671e+05   6.94e-21
  5.0202e+05   6.78e-21
  5.1780e+05   6.63e-21
  5.3409e+05   6.48e-21
  5.5088e+05   6.33e-21
  5.6820e+05   6.18e-21
  5.8607e+05   6.04e-21
  6.0450e+05   5.91e-21
  6.2351e+05   5.77e-21
  6.4311e+05   5.64e-21
  6.6334e+05   5.51e-21
  6.8419e+05   5.39e-21
  7.0571e+05   5.26e-21
  7.2790e+05   5.14e-21
  7.5079e+05   5.02e-21
  7.7440e+05   4.90e-21
  7.9875e+05   4.79e-21
  8.2387e+05   4.67e-21
  8.4977e+05   4.56e-21
  8.7649e+05   4.45e-21
  9.0405e+05   4.35e-21
  9.3248e+05   4.24e-21
  9.6180e+05   4.14e-21
  9.9205e+05   4.04e-21
  1.0232e+06   3.93e-21
  1.0554e+06   3.83e-21
  1.0886e+06   3.74e-21
  1.1228e+06   3.64e-21
  1.1581e+06   3.55e-21
  1.1946e+06   3.45e-21
  1.2321e+06   3.36e-21
  1.2709e+06   3.27e-21
  1.3108e+06   3.18e-21
  1.3521e+06   3.10e-21
  1.3946e+06   3.01e-21
  1.4384e+06   2.93e-21
  1.4837e+06   2.84e-21
  1.5303e+06   2.76e-21
  1.5784e+06   2.68e-21
  1.6281e+06   2.60e-21
  1.6793e+06   2.52e-21
  1.7321e+06   2.44e-21
  1.7865e+06   2.37e-21
  1.8427e+06   2.29e-21
  1.9006e+06   2.21e-21
  1.9604e+06   2.14e-21
  2.0221e+06   2.07e-21
  2.0856e+06   2.00e-21
  2.1512e+06   1.93e-21
  2.2189e+06   1.86e-21
  2.2886e+06   1.80e-21
  2.3606e+06   1.73e-21
  2.4348e+06   1.67e-21
  2.5114e+06   1.60e-21
  2.5904e+06   1.54e-21
  2.6718e+06   1.48e-21
  2.7558e+06   1.42e-21
  2.8425e+06   1.36e-21
  2.9319e+06   1.30e-21
  3.0241e+06   1.25e-21
  3.1192e+06   1.19e-21
  3.2173e+06   1.14e-21
  3.3184e+06   1.08e-21
  3.4228e+06   1.03e-21
  3.5304e+06   9.83e-22
  3.6414e+06   9.34e-22
  3.7559e+06   8.86e-22
  3.8740e+06   8.40e-22
  3.9958e+06   7.96e-22
  4.1215e+06   7.52e-22
  4.2511e+06   7.10e-22
  4.3848e+06   6.70e-22
  4.5227e+06   6.31e-22
  4.6649e+06   5.93e-22
  4.8116e+06   5.57e-22
  4.9629e+06   5.22e-22
  5.1189e+06   4.88e-22
  5.2799e+06   4.56e-22
  5.4459e+06   4.25e-22
  5.6171e+06   3.96e-22
  5.7938e+06   3.67e-22
  5.9760e+06   3.40e-22
  6.1639e+06   3.13e-22
  6.3577e+06   2.89e-22
  6.5576e+06   2.65e-22
  6.7638e+06   2.43e-22
  6.9765e+06   2.22e-22
  7.1959e+06   2.02e-22
  7.4222e+06   1.84e-22
  7.6556e+06   1.67e-22
  7.8963e+06   1.50e-22
  8.1446e+06   1.36e-22
  8.4007e+06   1.22e-22
  8.6649e+06   1.10e-22
  8.9373e+06   9.78e-23
  9.2184e+06   8.74e-23
  9.5082e+06   7.75e-23
  9.8072e+06   6.82e-23
  1.0116e+07   6.01e-23
  1.0434e+07   5.31e-23
  1.0762e+07   4.65e-23
  1.1100e+07   4.02e-23
  1.1449e+07   3.54e-23
  1.1809e+07   3.11e-23
  1.2181e+07   2.70e-23
  1.2564e+07   2.33e-23
  1.2959e+07   2.07e-23
  1.3366e+07   1.82e-23
  1.3786e+07   1.59e-23
  1.4220e+07   1.42e-23
