#  E [MeV]   Flux [# cm^{-2} s^{-1}  MeV^{-1}]
  3.0000e+04   2.41e-20
  3.1033e+04   2.32e-20
  3.2102e+04   2.24e-20
  3.3207e+04   2.17e-20
  3.4350e+04   2.09e-20
  3.5533e+04   2.02e-20
  3.6757e+04   1.95e-20
  3.8022e+04   1.88e-20
  3.9332e+04   1.81e-20
  4.0686e+04   1.75e-20
  4.2087e+04   1.68e-20
  4.3536e+04   1.62e-20
  4.5035e+04   1.56e-20
  4.6586e+04   1.51e-20
  4.8190e+04   1.45e-20
  4.9850e+04   1.40e-20
  5.1566e+04   1.35e-20
  5.3342e+04   1.30e-20
  5.5178e+04   1.25e-20
  5.7078e+04   1.20e-20
  5.9044e+04   1.16e-20
  6.1077e+04   1.11e-20
  6.3180e+04   1.07e-20
  6.5356e+04   1.03e-20
  6.7606e+04   9.91e-21
  6.9934e+04   9.53e-21
  7.2342e+04   9.16e-21
  7.4833e+04   8.80e-21
  7.7410e+04   8.46e-21
  8.0075e+04   8.12e-21
  8.2833e+04   7.80e-21
  8.5685e+04   7.49e-21
  8.8635e+04   7.18e-21
  9.1687e+04   6.89e-21
  9.4844e+04   6.61e-21
  9.8110e+04   6.33e-21
  1.0149e+05   6.07e-21
  1.0498e+05   5.82e-21
  1.0860e+05   5.57e-21
  1.1234e+05   5.33e-21
  1.1621e+05   5.10e-21
  1.2021e+05   4.88e-21
  1.2435e+05   4.67e-21
  1.2863e+05   4.47e-21
  1.3306e+05   4.27e-21
  1.3764e+05   4.08e-21
  1.4238e+05   3.89e-21
  1.4728e+05   3.72e-21
  1.5235e+05   3.55e-21
  1.5760e+05   3.38e-21
  1.6302e+05   3.22e-21
  1.6864e+05   3.07e-21
  1.7445e+05   2.92e-21
  1.8045e+05   2.78e-21
  1.8667e+05   2.65e-21
  1.9309e+05   2.52e-21
  1.9974e+05   2.39e-21
  2.0662e+05   2.27e-21
  2.1373e+05   2.16e-21
  2.2109e+05   2.04e-21
  2.2871e+05   1.94e-21
  2.3658e+05   1.84e-21
  2.4473e+05   1.74e-21
  2.5316e+05   1.65e-21
  2.6187e+05   1.56e-21
  2.7089e+05   1.47e-21
  2.8022e+05   1.39e-21
  2.8987e+05   1.31e-21
  2.9985e+05   1.24e-21
  3.1017e+05   1.17e-21
  3.2085e+05   1.10e-21
  3.3190e+05   1.03e-21
  3.4333e+05   9.72e-22
  3.5515e+05   9.14e-22
  3.6738e+05   8.59e-22
  3.8003e+05   8.06e-22
  3.9312e+05   7.56e-22
  4.0665e+05   7.09e-22
  4.2066e+05   6.64e-22
  4.3514e+05   6.22e-22
  4.5013e+05   5.82e-22
  4.6562e+05   5.44e-22
  4.8166e+05   5.08e-22
  4.9824e+05   4.75e-22
  5.1540e+05   4.43e-22
  5.3315e+05   4.13e-22
  5.5150e+05   3.85e-22
  5.7050e+05   3.58e-22
  5.9014e+05   3.33e-22
  6.1046e+05   3.10e-22
  6.3148e+05   2.88e-22
  6.5322e+05   2.67e-22
  6.7572e+05   2.48e-22
  6.9898e+05   2.30e-22
  7.2305e+05   2.13e-22
  7.4795e+05   1.97e-22
  7.7371e+05   1.82e-22
  8.0035e+05   1.69e-22
  8.2791e+05   1.56e-22
  8.5641e+05   1.44e-22
  8.8590e+05   1.33e-22
  9.1641e+05   1.23e-22
  9.4796e+05   1.13e-22
  9.8061e+05   1.04e-22
  1.0144e+06   9.61e-23
  1.0493e+06   8.84e-23
  1.0854e+06   8.13e-23
  1.1228e+06   7.49e-23
  1.1615e+06   6.89e-23
  1.2015e+06   6.32e-23
  1.2428e+06   5.81e-23
  1.2856e+06   5.34e-23
  1.3299e+06   4.89e-23
  1.3757e+06   4.48e-23
  1.4231e+06   4.11e-23
  1.4721e+06   3.76e-23
  1.5228e+06   3.44e-23
  1.5752e+06   3.15e-23
  1.6294e+06   2.88e-23
  1.6855e+06   2.63e-23
  1.7436e+06   2.40e-23
  1.8036e+06   2.19e-23
  1.8657e+06   2.00e-23
  1.9300e+06   1.82e-23
  1.9964e+06   1.66e-23
  2.0652e+06   1.51e-23
  2.1363e+06   1.37e-23
  2.2098e+06   1.25e-23
  2.2859e+06   1.13e-23
  2.3646e+06   1.03e-23
  2.4461e+06   9.30e-24
  2.5303e+06   8.43e-24
  2.6174e+06   7.62e-24
  2.7075e+06   6.86e-24
  2.8008e+06   6.21e-24
  2.8972e+06   5.61e-24
  2.9970e+06   5.04e-24
  3.1002e+06   4.53e-24
  3.2069e+06   4.08e-24
  3.3173e+06   3.66e-24
  3.4316e+06   3.27e-24
  3.5497e+06   2.94e-24
  3.6720e+06   2.63e-24
  3.7984e+06   2.34e-24
  3.9292e+06   2.10e-24
  4.0645e+06   1.87e-24
  4.2044e+06   1.66e-24
  4.3492e+06   1.47e-24
  4.4990e+06   1.31e-24
  4.6539e+06   1.16e-24
  4.8141e+06   1.02e-24
  4.9799e+06   9.08e-25
  5.1514e+06   8.01e-25
  5.3288e+06   7.02e-25
  5.5123e+06   6.16e-25
  5.7021e+06   5.43e-25
  5.8984e+06   4.74e-25
  6.1015e+06   4.11e-25
  6.3116e+06   3.61e-25
  6.5289e+06   3.14e-25
  6.7538e+06   2.71e-25
  6.9863e+06   2.36e-25
  7.2269e+06   2.04e-25
  7.4757e+06   1.75e-25
  7.7331e+06   1.50e-25
  7.9994e+06   1.30e-25
  8.2749e+06   1.11e-25
  8.5598e+06   9.36e-26
  8.8546e+06   8.02e-26
  9.1594e+06   6.81e-26
  9.4748e+06   5.72e-26
  9.8011e+06   4.81e-26
  1.0139e+07   4.05e-26
  1.0488e+07   3.37e-26
  1.0849e+07   2.78e-26
  1.1222e+07   2.31e-26
  1.1609e+07   1.90e-26
  1.2009e+07   1.54e-26
  1.2422e+07   1.25e-26
  1.2850e+07   1.01e-26
  1.3292e+07   8.09e-27
  1.3750e+07   6.41e-27
  1.4223e+07   5.11e-27
  1.4713e+07   4.01e-27
  1.5220e+07   3.08e-27
  1.5744e+07   2.41e-27
  1.6286e+07   1.85e-27
  1.6847e+07   1.40e-27
  1.7427e+07   1.04e-27
  1.8027e+07   7.77e-28
  1.8648e+07   5.65e-28
  1.9290e+07   4.00e-28
  1.9954e+07   2.82e-28
  2.0641e+07   1.92e-28
  2.1352e+07   1.27e-28
  2.2087e+07   8.08e-29
  2.2848e+07   4.94e-29
  2.3634e+07   2.87e-29
  2.4448e+07   1.57e-29
  2.5290e+07   8.05e-30
