#  E [GeV]   # per interaction  [GeV^{-1}]
  3.0000e+01   8.90e-01
  3.1033e+01   8.53e-01
  3.2102e+01   8.17e-01
  3.3207e+01   7.83e-01
  3.4350e+01   7.50e-01
  3.5533e+01   7.19e-01
  3.6757e+01   6.88e-01
  3.8022e+01   6.59e-01
  3.9332e+01   6.31e-01
  4.0686e+01   6.04e-01
  4.2087e+01   5.78e-01
  4.3536e+01   5.53e-01
  4.5035e+01   5.29e-01
  4.6586e+01   5.06e-01
  4.8190e+01   4.84e-01
  4.9850e+01   4.63e-01
  5.1566e+01   4.43e-01
  5.3342e+01   4.23e-01
  5.5178e+01   4.04e-01
  5.7078e+01   3.86e-01
  5.9044e+01   3.69e-01
  6.1077e+01   3.53e-01
  6.3180e+01   3.37e-01
  6.5356e+01   3.22e-01
  6.7606e+01   3.07e-01
  6.9934e+01   2.93e-01
  7.2342e+01   2.80e-01
  7.4833e+01   2.67e-01
  7.7410e+01   2.54e-01
  8.0075e+01   2.43e-01
  8.2833e+01   2.31e-01
  8.5685e+01   2.20e-01
  8.8635e+01   2.10e-01
  9.1687e+01   2.00e-01
  9.4844e+01   1.90e-01
  9.8110e+01   1.81e-01
  1.0149e+02   1.73e-01
  1.0498e+02   1.64e-01
  1.0860e+02   1.56e-01
  1.1234e+02   1.49e-01
  1.1621e+02   1.41e-01
  1.2021e+02   1.34e-01
  1.2435e+02   1.27e-01
  1.2863e+02   1.21e-01
  1.3306e+02   1.15e-01
  1.3764e+02   1.09e-01
  1.4238e+02   1.03e-01
  1.4728e+02   9.80e-02
  1.5235e+02   9.28e-02
  1.5760e+02   8.79e-02
  1.6302e+02   8.32e-02
  1.6864e+02   7.87e-02
  1.7445e+02   7.44e-02
  1.8045e+02   7.03e-02
  1.8667e+02   6.63e-02
  1.9309e+02   6.26e-02
  1.9974e+02   5.90e-02
  2.0662e+02   5.56e-02
  2.1373e+02   5.24e-02
  2.2109e+02   4.93e-02
  2.2871e+02   4.64e-02
  2.3658e+02   4.36e-02
  2.4473e+02   4.09e-02
  2.5316e+02   3.84e-02
  2.6187e+02   3.60e-02
  2.7089e+02   3.38e-02
  2.8022e+02   3.16e-02
  2.8987e+02   2.96e-02
  2.9985e+02   2.76e-02
  3.1017e+02   2.58e-02
  3.2085e+02   2.41e-02
  3.3190e+02   2.25e-02
  3.4333e+02   2.09e-02
  3.5515e+02   1.95e-02
  3.6738e+02   1.81e-02
  3.8003e+02   1.68e-02
  3.9312e+02   1.56e-02
  4.0665e+02   1.45e-02
  4.2066e+02   1.34e-02
  4.3514e+02   1.24e-02
  4.5013e+02   1.15e-02
  4.6562e+02   1.06e-02
  4.8166e+02   9.76e-03
  4.9824e+02   8.99e-03
  5.1540e+02   8.28e-03
  5.3315e+02   7.62e-03
  5.5150e+02   7.00e-03
  5.7050e+02   6.43e-03
  5.9014e+02   5.89e-03
  6.1046e+02   5.40e-03
  6.3148e+02   4.95e-03
  6.5322e+02   4.52e-03
  6.7572e+02   4.13e-03
  6.9898e+02   3.78e-03
  7.2305e+02   3.45e-03
  7.4795e+02   3.14e-03
  7.7371e+02   2.87e-03
  8.0035e+02   2.61e-03
  8.2791e+02   2.37e-03
  8.5641e+02   2.16e-03
  8.8590e+02   1.97e-03
  9.1641e+02   1.79e-03
  9.4796e+02   1.62e-03
  9.8061e+02   1.47e-03
  1.0144e+03   1.34e-03
  1.0493e+03   1.21e-03
  1.0854e+03   1.10e-03
  1.1228e+03   9.99e-04
  1.1615e+03   9.04e-04
  1.2015e+03   8.20e-04
  1.2428e+03   7.43e-04
  1.2856e+03   6.72e-04
  1.3299e+03   6.07e-04
  1.3757e+03   5.50e-04
  1.4231e+03   4.97e-04
  1.4721e+03   4.48e-04
  1.5228e+03   4.06e-04
  1.5752e+03   3.66e-04
  1.6294e+03   3.30e-04
  1.6855e+03   2.98e-04
  1.7436e+03   2.69e-04
  1.8036e+03   2.42e-04
  1.8657e+03   2.18e-04
  1.9300e+03   1.96e-04
  1.9964e+03   1.77e-04
  2.0652e+03   1.58e-04
  2.1363e+03   1.42e-04
  2.2098e+03   1.28e-04
  2.2859e+03   1.14e-04
  2.3646e+03   1.02e-04
  2.4461e+03   9.18e-05
  2.5303e+03   8.20e-05
  2.6174e+03   7.28e-05
  2.7075e+03   6.51e-05
  2.8008e+03   5.80e-05
  2.8972e+03   5.14e-05
  2.9970e+03   4.57e-05
  3.1002e+03   4.06e-05
  3.2069e+03   3.59e-05
  3.3173e+03   3.16e-05
  3.4316e+03   2.80e-05
  3.5497e+03   2.47e-05
  3.6720e+03   2.16e-05
  3.7984e+03   1.90e-05
  3.9292e+03   1.67e-05
  4.0645e+03   1.45e-05
  4.2044e+03   1.27e-05
  4.3492e+03   1.11e-05
  4.4990e+03   9.63e-06
  4.6539e+03   8.28e-06
  4.8141e+03   7.21e-06
  4.9799e+03   6.23e-06
  5.1514e+03   5.33e-06
  5.3288e+03   4.58e-06
  5.5123e+03   3.94e-06
  5.7021e+03   3.36e-06
  5.8984e+03   2.84e-06
  6.1015e+03   2.43e-06
  6.3116e+03   2.06e-06
  6.5289e+03   1.73e-06
  6.7538e+03   1.46e-06
  6.9863e+03   1.23e-06
  7.2269e+03   1.03e-06
  7.4757e+03   8.52e-07
  7.7331e+03   7.13e-07
  7.9994e+03   5.89e-07
  8.2749e+03   4.81e-07
  8.5598e+03   3.97e-07
  8.8546e+03   3.25e-07
  9.1594e+03   2.62e-07
  9.4748e+03   2.12e-07
  9.8011e+03   1.71e-07
  1.0139e+04   1.37e-07
  1.0488e+04   1.08e-07
  1.0849e+04   8.56e-08
  1.1222e+04   6.70e-08
  1.1609e+04   5.15e-08
  1.2009e+04   3.96e-08
  1.2422e+04   3.00e-08
  1.2850e+04   2.23e-08
  1.3292e+04   1.64e-08
  1.3750e+04   1.19e-08
  1.4223e+04   8.41e-09
  1.4713e+04   5.80e-09
  1.5220e+04   3.95e-09
  1.5744e+04   2.61e-09
  1.6286e+04   1.66e-09
  1.6847e+04   1.03e-09
  1.7427e+04   6.10e-10
  1.8027e+04   3.46e-10
  1.8648e+04   1.87e-10
  1.9290e+04   9.48e-11
  1.9954e+04   4.51e-11
  2.0641e+04   1.99e-11
  2.1352e+04   8.05e-12
  2.2087e+04   2.96e-12
  2.2848e+04   9.74e-13
  2.3634e+04   2.85e-13
  2.4448e+04   7.37e-14
  2.5290e+04   1.62e-14
