#  E [MeV]   Flux [# cm^{-2} s^{-1}  MeV^{-1}]
  3.0000e+04   1.15e-26
  3.1232e+04   1.11e-26
  3.2514e+04   1.07e-26
  3.3849e+04   1.02e-26
  3.5238e+04   9.85e-27
  3.6685e+04   9.46e-27
  3.8191e+04   9.09e-27
  3.9759e+04   8.73e-27
  4.1391e+04   8.39e-27
  4.3090e+04   8.05e-27
  4.4859e+04   7.73e-27
  4.6701e+04   7.42e-27
  4.8618e+04   7.12e-27
  5.0614e+04   6.83e-27
  5.2692e+04   6.55e-27
  5.4855e+04   6.28e-27
  5.7107e+04   6.02e-27
  5.9451e+04   5.77e-27
  6.1892e+04   5.53e-27
  6.4433e+04   5.30e-27
  6.7078e+04   5.08e-27
  6.9832e+04   4.86e-27
  7.2699e+04   4.66e-27
  7.5683e+04   4.46e-27
  7.8790e+04   4.27e-27
  8.2025e+04   4.08e-27
  8.5392e+04   3.90e-27
  8.8898e+04   3.73e-27
  9.2547e+04   3.57e-27
  9.6347e+04   3.41e-27
  1.0030e+05   3.26e-27
  1.0442e+05   3.11e-27
  1.0871e+05   2.98e-27
  1.1317e+05   2.84e-27
  1.1782e+05   2.71e-27
  1.2265e+05   2.59e-27
  1.2769e+05   2.47e-27
  1.3293e+05   2.36e-27
  1.3839e+05   2.25e-27
  1.4407e+05   2.14e-27
  1.4998e+05   2.04e-27
  1.5614e+05   1.95e-27
  1.6255e+05   1.85e-27
  1.6922e+05   1.76e-27
  1.7617e+05   1.68e-27
  1.8340e+05   1.60e-27
  1.9093e+05   1.52e-27
  1.9877e+05   1.45e-27
  2.0693e+05   1.38e-27
  2.1543e+05   1.31e-27
  2.2427e+05   1.24e-27
  2.3348e+05   1.18e-27
  2.4306e+05   1.12e-27
  2.5304e+05   1.07e-27
  2.6343e+05   1.01e-27
  2.7424e+05   9.60e-28
  2.8550e+05   9.11e-28
  2.9722e+05   8.64e-28
  3.0942e+05   8.19e-28
  3.2213e+05   7.76e-28
  3.3535e+05   7.36e-28
  3.4912e+05   6.97e-28
  3.6345e+05   6.60e-28
  3.7837e+05   6.25e-28
  3.9390e+05   5.92e-28
  4.1008e+05   5.60e-28
  4.2691e+05   5.30e-28
  4.4444e+05   5.02e-28
  4.6268e+05   4.75e-28
  4.8168e+05   4.49e-28
  5.0145e+05   4.24e-28
  5.2204e+05   4.01e-28
  5.4347e+05   3.80e-28
  5.6578e+05   3.59e-28
  5.8901e+05   3.39e-28
  6.1319e+05   3.21e-28
  6.3836e+05   3.04e-28
  6.6457e+05   2.87e-28
  6.9185e+05   2.72e-28
  7.2025e+05   2.57e-28
  7.4982e+05   2.43e-28
  7.8061e+05   2.31e-28
  8.1265e+05   2.18e-28
  8.4601e+05   2.07e-28
  8.8075e+05   1.96e-28
  9.1690e+05   1.86e-28
  9.5455e+05   1.77e-28
  9.9373e+05   1.68e-28
  1.0345e+06   1.60e-28
  1.0770e+06   1.52e-28
  1.1212e+06   1.44e-28
  1.1672e+06   1.37e-28
  1.2152e+06   1.31e-28
  1.2650e+06   1.25e-28
  1.3170e+06   1.19e-28
  1.3711e+06   1.14e-28
  1.4273e+06   1.09e-28
  1.4859e+06   1.04e-28
  1.5469e+06   9.93e-29
  1.6104e+06   9.51e-29
  1.6766e+06   9.11e-29
  1.7454e+06   8.72e-29
  1.8170e+06   8.37e-29
  1.8916e+06   8.04e-29
  1.9693e+06   7.72e-29
  2.0501e+06   7.42e-29
  2.1343e+06   7.13e-29
  2.2219e+06   6.86e-29
  2.3131e+06   6.61e-29
  2.4081e+06   6.36e-29
  2.5070e+06   6.13e-29
  2.6099e+06   5.91e-29
  2.7170e+06   5.70e-29
  2.8286e+06   5.49e-29
  2.9447e+06   5.30e-29
  3.0656e+06   5.11e-29
  3.1914e+06   4.93e-29
  3.3225e+06   4.75e-29
  3.4589e+06   4.58e-29
  3.6008e+06   4.42e-29
  3.7487e+06   4.26e-29
  3.9026e+06   4.11e-29
  4.0628e+06   3.96e-29
  4.2296e+06   3.81e-29
  4.4032e+06   3.67e-29
  4.5840e+06   3.53e-29
  4.7722e+06   3.40e-29
  4.9681e+06   3.27e-29
  5.1720e+06   3.14e-29
  5.3844e+06   3.01e-29
  5.6054e+06   2.89e-29
  5.8355e+06   2.76e-29
  6.0751e+06   2.64e-29
  6.3245e+06   2.52e-29
  6.5841e+06   2.41e-29
  6.8544e+06   2.29e-29
  7.1358e+06   2.18e-29
  7.4288e+06   2.07e-29
  7.7338e+06   1.96e-29
  8.0513e+06   1.85e-29
  8.3818e+06   1.75e-29
  8.7259e+06   1.64e-29
  9.0841e+06   1.54e-29
  9.4571e+06   1.44e-29
  9.8453e+06   1.34e-29
  1.0249e+07   1.24e-29
  1.0670e+07   1.15e-29
  1.1108e+07   1.06e-29
  1.1564e+07   9.66e-30
  1.2039e+07   8.80e-30
  1.2533e+07   7.96e-30
  1.3048e+07   7.15e-30
  1.3584e+07   6.38e-30
  1.4141e+07   5.64e-30
  1.4722e+07   4.94e-30
  1.5326e+07   4.28e-30
  1.5955e+07   3.67e-30
  1.6610e+07   3.10e-30
  1.7292e+07   2.58e-30
  1.8002e+07   2.11e-30
  1.8741e+07   1.69e-30
  1.9511e+07   1.33e-30
  2.0312e+07   1.01e-30
  2.1145e+07   7.50e-31
  2.2013e+07   5.37e-31
  2.2917e+07   3.69e-31
  2.3858e+07   2.42e-31
  2.4837e+07   1.50e-31
  2.5857e+07   8.68e-32
  2.6919e+07   4.65e-32
  2.8024e+07   2.27e-32
  2.9174e+07   9.87e-33
  3.0372e+07   3.75e-33
  3.1619e+07   1.20e-33
  3.2917e+07   3.15e-34
  3.4268e+07   6.41e-35
  3.5675e+07   9.51e-36
  3.7140e+07   9.51e-37
  3.8664e+07   5.80e-38
  4.0252e+07   1.88e-39
  4.1904e+07   2.73e-41
  4.3624e+07   1.39e-43
  4.5415e+07   1.82e-46
  4.7280e+07   3.94e-50
  4.9221e+07   7.82e-55
  5.1241e+07   6.28e-61
  5.3345e+07   6.37e-69
  5.5535e+07   1.12e-70
  5.7815e+07   9.80e-71
  6.0188e+07   8.46e-71
  6.2659e+07   7.27e-71
  6.5232e+07   6.28e-71
  6.7910e+07   5.35e-71
  7.0698e+07   4.58e-71
  7.3600e+07   3.95e-71
  7.6621e+07   3.36e-71
  7.9767e+07   2.91e-71
  8.3042e+07   2.54e-71
  8.6451e+07   2.20e-71
  9.0000e+07   1.99e-71
