#  E [MeV]   Flux [# cm^{-2} s^{-1}  MeV^{-1}]
  3.0000e+04   3.82e-20
  3.1123e+04   3.67e-20
  3.2288e+04   3.52e-20
  3.3497e+04   3.39e-20
  3.4751e+04   3.25e-20
  3.6051e+04   3.12e-20
  3.7401e+04   3.00e-20
  3.8801e+04   2.88e-20
  4.0253e+04   2.77e-20
  4.1760e+04   2.66e-20
  4.3324e+04   2.55e-20
  4.4945e+04   2.45e-20
  4.6628e+04   2.35e-20
  4.8373e+04   2.26e-20
  5.0184e+04   2.17e-20
  5.2063e+04   2.08e-20
  5.4011e+04   2.00e-20
  5.6033e+04   1.92e-20
  5.8131e+04   1.84e-20
  6.0307e+04   1.77e-20
  6.2564e+04   1.70e-20
  6.4906e+04   1.63e-20
  6.7336e+04   1.56e-20
  6.9857e+04   1.50e-20
  7.2472e+04   1.43e-20
  7.5184e+04   1.38e-20
  7.7999e+04   1.32e-20
  8.0919e+04   1.26e-20
  8.3948e+04   1.21e-20
  8.7090e+04   1.16e-20
  9.0350e+04   1.11e-20
  9.3732e+04   1.07e-20
  9.7241e+04   1.02e-20
  1.0088e+05   9.77e-21
  1.0466e+05   9.35e-21
  1.0858e+05   8.95e-21
  1.1264e+05   8.57e-21
  1.1686e+05   8.20e-21
  1.2123e+05   7.84e-21
  1.2577e+05   7.50e-21
  1.3048e+05   7.17e-21
  1.3536e+05   6.86e-21
  1.4043e+05   6.55e-21
  1.4568e+05   6.26e-21
  1.5114e+05   5.98e-21
  1.5680e+05   5.71e-21
  1.6266e+05   5.45e-21
  1.6875e+05   5.20e-21
  1.7507e+05   4.96e-21
  1.8162e+05   4.73e-21
  1.8842e+05   4.51e-21
  1.9548e+05   4.30e-21
  2.0279e+05   4.10e-21
  2.1039e+05   3.90e-21
  2.1826e+05   3.72e-21
  2.2643e+05   3.54e-21
  2.3491e+05   3.37e-21
  2.4370e+05   3.20e-21
  2.5282e+05   3.05e-21
  2.6229e+05   2.89e-21
  2.7211e+05   2.75e-21
  2.8229e+05   2.61e-21
  2.9286e+05   2.48e-21
  3.0382e+05   2.35e-21
  3.1519e+05   2.23e-21
  3.2699e+05   2.11e-21
  3.3923e+05   2.00e-21
  3.5193e+05   1.90e-21
  3.6511e+05   1.80e-21
  3.7877e+05   1.70e-21
  3.9295e+05   1.61e-21
  4.0766e+05   1.52e-21
  4.2292e+05   1.44e-21
  4.3875e+05   1.36e-21
  4.5518e+05   1.28e-21
  4.7222e+05   1.21e-21
  4.8989e+05   1.14e-21
  5.0823e+05   1.08e-21
  5.2726e+05   1.01e-21
  5.4699e+05   9.55e-22
  5.6747e+05   8.99e-22
  5.8871e+05   8.46e-22
  6.1075e+05   7.95e-22
  6.3361e+05   7.48e-22
  6.5733e+05   7.03e-22
  6.8194e+05   6.60e-22
  7.0746e+05   6.19e-22
  7.3395e+05   5.81e-22
  7.6142e+05   5.45e-22
  7.8992e+05   5.11e-22
  8.1949e+05   4.79e-22
  8.5017e+05   4.49e-22
  8.8199e+05   4.20e-22
  9.1501e+05   3.93e-22
  9.4926e+05   3.68e-22
  9.8479e+05   3.44e-22
  1.0217e+06   3.22e-22
  1.0599e+06   3.01e-22
  1.0996e+06   2.81e-22
  1.1407e+06   2.62e-22
  1.1834e+06   2.45e-22
  1.2277e+06   2.28e-22
  1.2737e+06   2.13e-22
  1.3214e+06   1.98e-22
  1.3708e+06   1.84e-22
  1.4222e+06   1.72e-22
  1.4754e+06   1.60e-22
  1.5306e+06   1.49e-22
  1.5879e+06   1.38e-22
  1.6474e+06   1.28e-22
  1.7090e+06   1.19e-22
  1.7730e+06   1.11e-22
  1.8394e+06   1.03e-22
  1.9082e+06   9.52e-23
  1.9797e+06   8.81e-23
  2.0538e+06   8.17e-23
  2.1306e+06   7.56e-23
  2.2104e+06   6.99e-23
  2.2931e+06   6.47e-23
  2.3790e+06   5.97e-23
  2.4680e+06   5.51e-23
  2.5604e+06   5.08e-23
  2.6563e+06   4.69e-23
  2.7557e+06   4.31e-23
  2.8589e+06   3.97e-23
  2.9659e+06   3.65e-23
  3.0769e+06   3.36e-23
  3.1921e+06   3.08e-23
  3.3116e+06   2.83e-23
  3.4355e+06   2.59e-23
  3.5641e+06   2.37e-23
  3.6976e+06   2.18e-23
  3.8360e+06   1.99e-23
  3.9796e+06   1.82e-23
  4.1285e+06   1.66e-23
  4.2831e+06   1.51e-23
  4.4434e+06   1.38e-23
  4.6097e+06   1.25e-23
  4.7823e+06   1.14e-23
  4.9613e+06   1.03e-23
  5.1470e+06   9.36e-24
  5.3397e+06   8.47e-24
  5.5396e+06   7.64e-24
  5.7470e+06   6.91e-24
  5.9621e+06   6.23e-24
  6.1853e+06   5.60e-24
  6.4168e+06   5.04e-24
  6.6570e+06   4.53e-24
  6.9062e+06   4.05e-24
  7.1647e+06   3.62e-24
  7.4329e+06   3.24e-24
  7.7112e+06   2.88e-24
  7.9998e+06   2.57e-24
  8.2993e+06   2.29e-24
  8.6100e+06   2.02e-24
  8.9323e+06   1.79e-24
  9.2666e+06   1.58e-24
  9.6135e+06   1.39e-24
  9.9734e+06   1.21e-24
  1.0347e+07   1.07e-24
  1.0734e+07   9.30e-25
  1.1136e+07   8.05e-25
  1.1553e+07   7.02e-25
  1.1985e+07   6.06e-25
  1.2434e+07   5.19e-25
  1.2899e+07   4.48e-25
  1.3382e+07   3.83e-25
  1.3883e+07   3.24e-25
  1.4403e+07   2.76e-25
  1.4942e+07   2.33e-25
  1.5501e+07   1.94e-25
  1.6081e+07   1.62e-25
  1.6683e+07   1.35e-25
  1.7308e+07   1.10e-25
  1.7956e+07   9.02e-26
  1.8628e+07   7.33e-26
  1.9325e+07   5.84e-26
  2.0049e+07   4.62e-26
  2.0799e+07   3.65e-26
  2.1578e+07   2.81e-26
  2.2386e+07   2.13e-26
  2.3224e+07   1.61e-26
  2.4093e+07   1.18e-26
  2.4995e+07   8.44e-27
  2.5930e+07   6.03e-27
  2.6901e+07   4.13e-27
  2.7908e+07   2.69e-27
  2.8953e+07   1.74e-27
  3.0037e+07   1.06e-27
  3.1161e+07   6.00e-28
  3.2327e+07   3.27e-28
  3.3537e+07   1.63e-28
  3.4793e+07   7.18e-29
  3.6095e+07   2.89e-29
  3.7446e+07   1.00e-29
  3.8848e+07   2.85e-30
  4.0302e+07   6.49e-31
  4.1811e+07   1.11e-31
  4.3376e+07   1.28e-32
  4.5000e+07   9.34e-34
