#  E [GeV]   # per interaction  [GeV^{-1}]
  3.0000e+01   3.10e-02
  3.1232e+01   2.98e-02
  3.2514e+01   2.86e-02
  3.3849e+01   2.75e-02
  3.5238e+01   2.65e-02
  3.6685e+01   2.54e-02
  3.8191e+01   2.44e-02
  3.9759e+01   2.34e-02
  4.1391e+01   2.25e-02
  4.3090e+01   2.16e-02
  4.4859e+01   2.07e-02
  4.6701e+01   1.99e-02
  4.8618e+01   1.91e-02
  5.0614e+01   1.83e-02
  5.2692e+01   1.75e-02
  5.4855e+01   1.68e-02
  5.7107e+01   1.61e-02
  5.9451e+01   1.54e-02
  6.1892e+01   1.48e-02
  6.4433e+01   1.42e-02
  6.7078e+01   1.36e-02
  6.9832e+01   1.30e-02
  7.2699e+01   1.24e-02
  7.5683e+01   1.19e-02
  7.8790e+01   1.14e-02
  8.2025e+01   1.09e-02
  8.5392e+01   1.04e-02
  8.8898e+01   9.94e-03
  9.2547e+01   9.49e-03
  9.6347e+01   9.07e-03
  1.0030e+02   8.66e-03
  1.0442e+02   8.27e-03
  1.0871e+02   7.89e-03
  1.1317e+02   7.53e-03
  1.1782e+02   7.18e-03
  1.2265e+02   6.85e-03
  1.2769e+02   6.53e-03
  1.3293e+02   6.22e-03
  1.3839e+02   5.93e-03
  1.4407e+02   5.65e-03
  1.4998e+02   5.38e-03
  1.5614e+02   5.12e-03
  1.6255e+02   4.87e-03
  1.6922e+02   4.63e-03
  1.7617e+02   4.40e-03
  1.8340e+02   4.18e-03
  1.9093e+02   3.98e-03
  1.9877e+02   3.78e-03
  2.0693e+02   3.59e-03
  2.1543e+02   3.40e-03
  2.2427e+02   3.23e-03
  2.3348e+02   3.06e-03
  2.4306e+02   2.91e-03
  2.5304e+02   2.75e-03
  2.6343e+02   2.61e-03
  2.7424e+02   2.47e-03
  2.8550e+02   2.34e-03
  2.9722e+02   2.21e-03
  3.0942e+02   2.09e-03
  3.2213e+02   1.98e-03
  3.3535e+02   1.87e-03
  3.4912e+02   1.77e-03
  3.6345e+02   1.67e-03
  3.7837e+02   1.58e-03
  3.9390e+02   1.49e-03
  4.1008e+02   1.40e-03
  4.2691e+02   1.32e-03
  4.4444e+02   1.25e-03
  4.6268e+02   1.17e-03
  4.8168e+02   1.11e-03
  5.0145e+02   1.04e-03
  5.2204e+02   9.79e-04
  5.4347e+02   9.21e-04
  5.6578e+02   8.66e-04
  5.8901e+02   8.13e-04
  6.1319e+02   7.64e-04
  6.3836e+02   7.18e-04
  6.6457e+02   6.74e-04
  6.9185e+02   6.32e-04
  7.2025e+02   5.93e-04
  7.4982e+02   5.56e-04
  7.8061e+02   5.22e-04
  8.1265e+02   4.89e-04
  8.4601e+02   4.59e-04
  8.8075e+02   4.30e-04
  9.1690e+02   4.03e-04
  9.5455e+02   3.77e-04
  9.9373e+02   3.53e-04
  1.0345e+03   3.31e-04
  1.0770e+03   3.10e-04
  1.1212e+03   2.90e-04
  1.1672e+03   2.71e-04
  1.2152e+03   2.54e-04
  1.2650e+03   2.38e-04
  1.3170e+03   2.23e-04
  1.3711e+03   2.08e-04
  1.4273e+03   1.95e-04
  1.4859e+03   1.82e-04
  1.5469e+03   1.70e-04
  1.6104e+03   1.60e-04
  1.6766e+03   1.49e-04
  1.7454e+03   1.40e-04
  1.8170e+03   1.31e-04
  1.8916e+03   1.22e-04
  1.9693e+03   1.14e-04
  2.0501e+03   1.07e-04
  2.1343e+03   1.00e-04
  2.2219e+03   9.37e-05
  2.3131e+03   8.77e-05
  2.4081e+03   8.20e-05
  2.5070e+03   7.67e-05
  2.6099e+03   7.18e-05
  2.7170e+03   6.72e-05
  2.8286e+03   6.28e-05
  2.9447e+03   5.88e-05
  3.0656e+03   5.51e-05
  3.1914e+03   5.16e-05
  3.3225e+03   4.83e-05
  3.4589e+03   4.52e-05
  3.6008e+03   4.23e-05
  3.7487e+03   3.97e-05
  3.9026e+03   3.71e-05
  4.0628e+03   3.48e-05
  4.2296e+03   3.26e-05
  4.4032e+03   3.05e-05
  4.5840e+03   2.86e-05
  4.7722e+03   2.68e-05
  4.9681e+03   2.51e-05
  5.1720e+03   2.35e-05
  5.3844e+03   2.20e-05
  5.6054e+03   2.06e-05
  5.8355e+03   1.93e-05
  6.0751e+03   1.81e-05
  6.3245e+03   1.70e-05
  6.5841e+03   1.59e-05
  6.8544e+03   1.49e-05
  7.1358e+03   1.40e-05
  7.4288e+03   1.31e-05
  7.7338e+03   1.22e-05
  8.0513e+03   1.14e-05
  8.3818e+03   1.07e-05
  8.7259e+03   1.00e-05
  9.0841e+03   9.34e-06
  9.4571e+03   8.73e-06
  9.8453e+03   8.14e-06
  1.0249e+04   7.59e-06
  1.0670e+04   7.06e-06
  1.1108e+04   6.56e-06
  1.1564e+04   6.09e-06
  1.2039e+04   5.64e-06
  1.2533e+04   5.21e-06
  1.3048e+04   4.80e-06
  1.3584e+04   4.41e-06
  1.4141e+04   4.04e-06
  1.4722e+04   3.69e-06
  1.5326e+04   3.36e-06
  1.5955e+04   3.04e-06
  1.6610e+04   2.74e-06
  1.7292e+04   2.45e-06
  1.8002e+04   2.17e-06
  1.8741e+04   1.91e-06
  1.9511e+04   1.67e-06
  2.0312e+04   1.44e-06
  2.1145e+04   1.23e-06
  2.2013e+04   1.03e-06
  2.2917e+04   8.48e-07
  2.3858e+04   6.84e-07
  2.4837e+04   5.38e-07
  2.5857e+04   4.11e-07
  2.6919e+04   3.03e-07
  2.8024e+04   2.14e-07
  2.9174e+04   1.44e-07
  3.0372e+04   9.09e-08
  3.1619e+04   5.33e-08
  3.2917e+04   2.85e-08
  3.4268e+04   1.36e-08
  3.5675e+04   5.64e-09
  3.7140e+04   1.96e-09
  3.8664e+04   5.43e-10
  4.0252e+04   1.14e-10
  4.1904e+04   1.65e-11
  4.3624e+04   1.50e-12
  4.5415e+04   7.44e-14
  4.7280e+04   1.65e-15
  4.9221e+04   1.26e-17
  5.1241e+04   2.32e-20
  5.3345e+04   6.15e-24
  5.5535e+04   1.15e-28
  5.7815e+04   5.37e-35
  6.0188e+04   1.42e-43
  6.2659e+04   9.62e-47
  6.5232e+04   9.06e-47
  6.7910e+04   8.54e-47
  7.0698e+04   8.04e-47
  7.3600e+04   7.56e-47
  7.6621e+04   7.10e-47
  7.9767e+04   6.67e-47
  8.3042e+04   6.24e-47
  8.6451e+04   5.84e-47
  9.0000e+04   5.48e-47
