#  E [MeV]   Flux [# cm^{-2} s^{-1}  MeV^{-1}]
  3.0000e+04   3.48e-26
  3.1232e+04   3.35e-26
  3.2514e+04   3.22e-26
  3.3849e+04   3.10e-26
  3.5238e+04   2.98e-26
  3.6685e+04   2.86e-26
  3.8191e+04   2.74e-26
  3.9759e+04   2.64e-26
  4.1391e+04   2.53e-26
  4.3090e+04   2.43e-26
  4.4859e+04   2.33e-26
  4.6701e+04   2.24e-26
  4.8618e+04   2.15e-26
  5.0614e+04   2.06e-26
  5.2692e+04   1.97e-26
  5.4855e+04   1.89e-26
  5.7107e+04   1.81e-26
  5.9451e+04   1.74e-26
  6.1892e+04   1.66e-26
  6.4433e+04   1.59e-26
  6.7078e+04   1.53e-26
  6.9832e+04   1.46e-26
  7.2699e+04   1.40e-26
  7.5683e+04   1.34e-26
  7.8790e+04   1.28e-26
  8.2025e+04   1.22e-26
  8.5392e+04   1.17e-26
  8.8898e+04   1.12e-26
  9.2547e+04   1.07e-26
  9.6347e+04   1.02e-26
  1.0030e+05   9.74e-27
  1.0442e+05   9.30e-27
  1.0871e+05   8.87e-27
  1.1317e+05   8.47e-27
  1.1782e+05   8.08e-27
  1.2265e+05   7.70e-27
  1.2769e+05   7.34e-27
  1.3293e+05   7.00e-27
  1.3839e+05   6.67e-27
  1.4407e+05   6.35e-27
  1.4998e+05   6.05e-27
  1.5614e+05   5.76e-27
  1.6255e+05   5.48e-27
  1.6922e+05   5.21e-27
  1.7617e+05   4.95e-27
  1.8340e+05   4.71e-27
  1.9093e+05   4.47e-27
  1.9877e+05   4.25e-27
  2.0693e+05   4.03e-27
  2.1543e+05   3.83e-27
  2.2427e+05   3.63e-27
  2.3348e+05   3.45e-27
  2.4306e+05   3.27e-27
  2.5304e+05   3.10e-27
  2.6343e+05   2.93e-27
  2.7424e+05   2.78e-27
  2.8550e+05   2.63e-27
  2.9722e+05   2.49e-27
  3.0942e+05   2.35e-27
  3.2213e+05   2.23e-27
  3.3535e+05   2.10e-27
  3.4912e+05   1.99e-27
  3.6345e+05   1.88e-27
  3.7837e+05   1.77e-27
  3.9390e+05   1.67e-27
  4.1008e+05   1.58e-27
  4.2691e+05   1.49e-27
  4.4444e+05   1.40e-27
  4.6268e+05   1.32e-27
  4.8168e+05   1.24e-27
  5.0145e+05   1.17e-27
  5.2204e+05   1.10e-27
  5.4347e+05   1.04e-27
  5.6578e+05   9.74e-28
  5.8901e+05   9.15e-28
  6.1319e+05   8.59e-28
  6.3836e+05   8.07e-28
  6.6457e+05   7.58e-28
  6.9185e+05   7.11e-28
  7.2025e+05   6.67e-28
  7.4982e+05   6.26e-28
  7.8061e+05   5.87e-28
  8.1265e+05   5.50e-28
  8.4601e+05   5.16e-28
  8.8075e+05   4.83e-28
  9.1690e+05   4.53e-28
  9.5455e+05   4.24e-28
  9.9373e+05   3.97e-28
  1.0345e+06   3.72e-28
  1.0770e+06   3.48e-28
  1.1212e+06   3.26e-28
  1.1672e+06   3.05e-28
  1.2152e+06   2.86e-28
  1.2650e+06   2.67e-28
  1.3170e+06   2.50e-28
  1.3711e+06   2.34e-28
  1.4273e+06   2.19e-28
  1.4859e+06   2.05e-28
  1.5469e+06   1.92e-28
  1.6104e+06   1.79e-28
  1.6766e+06   1.68e-28
  1.7454e+06   1.57e-28
  1.8170e+06   1.47e-28
  1.8916e+06   1.38e-28
  1.9693e+06   1.29e-28
  2.0501e+06   1.20e-28
  2.1343e+06   1.13e-28
  2.2219e+06   1.05e-28
  2.3131e+06   9.86e-29
  2.4081e+06   9.22e-29
  2.5070e+06   8.63e-29
  2.6099e+06   8.07e-29
  2.7170e+06   7.55e-29
  2.8286e+06   7.07e-29
  2.9447e+06   6.62e-29
  3.0656e+06   6.19e-29
  3.1914e+06   5.80e-29
  3.3225e+06   5.43e-29
  3.4589e+06   5.08e-29
  3.6008e+06   4.76e-29
  3.7487e+06   4.46e-29
  3.9026e+06   4.18e-29
  4.0628e+06   3.91e-29
  4.2296e+06   3.67e-29
  4.4032e+06   3.43e-29
  4.5840e+06   3.22e-29
  4.7722e+06   3.01e-29
  4.9681e+06   2.82e-29
  5.1720e+06   2.64e-29
  5.3844e+06   2.48e-29
  5.6054e+06   2.32e-29
  5.8355e+06   2.18e-29
  6.0751e+06   2.04e-29
  6.3245e+06   1.91e-29
  6.5841e+06   1.79e-29
  6.8544e+06   1.68e-29
  7.1358e+06   1.57e-29
  7.4288e+06   1.47e-29
  7.7338e+06   1.38e-29
  8.0513e+06   1.29e-29
  8.3818e+06   1.20e-29
  8.7259e+06   1.12e-29
  9.0841e+06   1.05e-29
  9.4571e+06   9.81e-30
  9.8453e+06   9.15e-30
  1.0249e+07   8.53e-30
  1.0670e+07   7.94e-30
  1.1108e+07   7.38e-30
  1.1564e+07   6.85e-30
  1.2039e+07   6.34e-30
  1.2533e+07   5.86e-30
  1.3048e+07   5.40e-30
  1.3584e+07   4.96e-30
  1.4141e+07   4.55e-30
  1.4722e+07   4.15e-30
  1.5326e+07   3.78e-30
  1.5955e+07   3.42e-30
  1.6610e+07   3.08e-30
  1.7292e+07   2.75e-30
  1.8002e+07   2.44e-30
  1.8741e+07   2.15e-30
  1.9511e+07   1.88e-30
  2.0312e+07   1.62e-30
  2.1145e+07   1.38e-30
  2.2013e+07   1.16e-30
  2.2917e+07   9.54e-31
  2.3858e+07   7.69e-31
  2.4837e+07   6.05e-31
  2.5857e+07   4.62e-31
  2.6919e+07   3.41e-31
  2.8024e+07   2.41e-31
  2.9174e+07   1.62e-31
  3.0372e+07   1.02e-31
  3.1619e+07   6.00e-32
  3.2917e+07   3.21e-32
  3.4268e+07   1.53e-32
  3.5675e+07   6.34e-33
  3.7140e+07   2.20e-33
  3.8664e+07   6.11e-34
  4.0252e+07   1.28e-34
  4.1904e+07   1.86e-35
  4.3624e+07   1.69e-36
  4.5415e+07   8.37e-38
  4.7280e+07   1.86e-39
  4.9221e+07   1.42e-41
  5.1241e+07   2.61e-44
  5.3345e+07   6.92e-48
  5.5535e+07   1.29e-52
  5.7815e+07   6.04e-59
  6.0188e+07   1.60e-67
  6.2659e+07   1.08e-70
  6.5232e+07   1.02e-70
  6.7910e+07   9.60e-71
  7.0698e+07   9.04e-71
  7.3600e+07   8.50e-71
  7.6621e+07   7.99e-71
  7.9767e+07   7.50e-71
  8.3042e+07   7.02e-71
  8.6451e+07   6.57e-71
  9.0000e+07   6.17e-71
