#  E [GeV]   # per interaction  [GeV^{-1}]
  3.0000e+01   3.04e-02
  3.1232e+01   2.92e-02
  3.2514e+01   2.81e-02
  3.3849e+01   2.70e-02
  3.5238e+01   2.59e-02
  3.6685e+01   2.49e-02
  3.8191e+01   2.39e-02
  3.9759e+01   2.30e-02
  4.1391e+01   2.20e-02
  4.3090e+01   2.12e-02
  4.4859e+01   2.03e-02
  4.6701e+01   1.95e-02
  4.8618e+01   1.87e-02
  5.0614e+01   1.79e-02
  5.2692e+01   1.72e-02
  5.4855e+01   1.65e-02
  5.7107e+01   1.58e-02
  5.9451e+01   1.51e-02
  6.1892e+01   1.45e-02
  6.4433e+01   1.38e-02
  6.7078e+01   1.33e-02
  6.9832e+01   1.27e-02
  7.2699e+01   1.21e-02
  7.5683e+01   1.16e-02
  7.8790e+01   1.11e-02
  8.2025e+01   1.06e-02
  8.5392e+01   1.01e-02
  8.8898e+01   9.69e-03
  9.2547e+01   9.25e-03
  9.6347e+01   8.84e-03
  1.0030e+02   8.43e-03
  1.0442e+02   8.05e-03
  1.0871e+02   7.68e-03
  1.1317e+02   7.32e-03
  1.1782e+02   6.98e-03
  1.2265e+02   6.65e-03
  1.2769e+02   6.34e-03
  1.3293e+02   6.04e-03
  1.3839e+02   5.75e-03
  1.4407e+02   5.47e-03
  1.4998e+02   5.20e-03
  1.5614e+02   4.95e-03
  1.6255e+02   4.70e-03
  1.6922e+02   4.47e-03
  1.7617e+02   4.24e-03
  1.8340e+02   4.03e-03
  1.9093e+02   3.82e-03
  1.9877e+02   3.62e-03
  2.0693e+02   3.43e-03
  2.1543e+02   3.25e-03
  2.2427e+02   3.08e-03
  2.3348e+02   2.92e-03
  2.4306e+02   2.76e-03
  2.5304e+02   2.61e-03
  2.6343e+02   2.47e-03
  2.7424e+02   2.33e-03
  2.8550e+02   2.20e-03
  2.9722e+02   2.07e-03
  3.0942e+02   1.96e-03
  3.2213e+02   1.84e-03
  3.3535e+02   1.73e-03
  3.4912e+02   1.63e-03
  3.6345e+02   1.54e-03
  3.7837e+02   1.44e-03
  3.9390e+02   1.36e-03
  4.1008e+02   1.27e-03
  4.2691e+02   1.19e-03
  4.4444e+02   1.12e-03
  4.6268e+02   1.05e-03
  4.8168e+02   9.83e-04
  5.0145e+02   9.20e-04
  5.2204e+02   8.61e-04
  5.4347e+02   8.04e-04
  5.6578e+02   7.52e-04
  5.8901e+02   7.02e-04
  6.1319e+02   6.55e-04
  6.3836e+02   6.11e-04
  6.6457e+02   5.70e-04
  6.9185e+02   5.31e-04
  7.2025e+02   4.95e-04
  7.4982e+02   4.61e-04
  7.8061e+02   4.29e-04
  8.1265e+02   4.00e-04
  8.4601e+02   3.72e-04
  8.8075e+02   3.46e-04
  9.1690e+02   3.22e-04
  9.5455e+02   3.00e-04
  9.9373e+02   2.79e-04
  1.0345e+03   2.60e-04
  1.0770e+03   2.42e-04
  1.1212e+03   2.25e-04
  1.1672e+03   2.09e-04
  1.2152e+03   1.95e-04
  1.2650e+03   1.81e-04
  1.3170e+03   1.69e-04
  1.3711e+03   1.57e-04
  1.4273e+03   1.46e-04
  1.4859e+03   1.36e-04
  1.5469e+03   1.27e-04
  1.6104e+03   1.18e-04
  1.6766e+03   1.10e-04
  1.7454e+03   1.02e-04
  1.8170e+03   9.55e-05
  1.8916e+03   8.90e-05
  1.9693e+03   8.29e-05
  2.0501e+03   7.73e-05
  2.1343e+03   7.21e-05
  2.2219e+03   6.72e-05
  2.3131e+03   6.27e-05
  2.4081e+03   5.84e-05
  2.5070e+03   5.44e-05
  2.6099e+03   5.08e-05
  2.7170e+03   4.73e-05
  2.8286e+03   4.41e-05
  2.9447e+03   4.12e-05
  3.0656e+03   3.84e-05
  3.1914e+03   3.58e-05
  3.3225e+03   3.34e-05
  3.4589e+03   3.11e-05
  3.6008e+03   2.90e-05
  3.7487e+03   2.71e-05
  3.9026e+03   2.52e-05
  4.0628e+03   2.35e-05
  4.2296e+03   2.19e-05
  4.4032e+03   2.03e-05
  4.5840e+03   1.89e-05
  4.7722e+03   1.76e-05
  4.9681e+03   1.64e-05
  5.1720e+03   1.52e-05
  5.3844e+03   1.41e-05
  5.6054e+03   1.31e-05
  5.8355e+03   1.21e-05
  6.0751e+03   1.12e-05
  6.3245e+03   1.04e-05
  6.5841e+03   9.62e-06
  6.8544e+03   8.87e-06
  7.1358e+03   8.17e-06
  7.4288e+03   7.52e-06
  7.7338e+03   6.90e-06
  8.0513e+03   6.32e-06
  8.3818e+03   5.78e-06
  8.7259e+03   5.27e-06
  9.0841e+03   4.80e-06
  9.4571e+03   4.35e-06
  9.8453e+03   3.93e-06
  1.0249e+04   3.54e-06
  1.0670e+04   3.17e-06
  1.1108e+04   2.82e-06
  1.1564e+04   2.50e-06
  1.2039e+04   2.20e-06
  1.2533e+04   1.92e-06
  1.3048e+04   1.67e-06
  1.3584e+04   1.43e-06
  1.4141e+04   1.22e-06
  1.4722e+04   1.02e-06
  1.5326e+04   8.46e-07
  1.5955e+04   6.91e-07
  1.6610e+04   5.54e-07
  1.7292e+04   4.36e-07
  1.8002e+04   3.35e-07
  1.8741e+04   2.51e-07
  1.9511e+04   1.82e-07
  2.0312e+04   1.28e-07
  2.1145e+04   8.60e-08
  2.2013e+04   5.52e-08
  2.2917e+04   3.34e-08
  2.3858e+04   1.90e-08
  2.4837e+04   9.94e-09
  2.5857e+04   4.75e-09
  2.6919e+04   2.03e-09
  2.8024e+04   7.58e-10
  2.9174e+04   2.41e-10
  3.0372e+04   6.30e-11
  3.1619e+04   1.29e-11
  3.2917e+04   1.98e-12
  3.4268e+04   2.10e-13
  3.5675e+04   1.41e-14
  3.7140e+04   5.35e-16
  3.8664e+04   9.83e-18
  4.0252e+04   7.16e-20
  4.1904e+04   1.59e-22
  4.3624e+04   7.51e-26
  4.5415e+04   4.72e-30
  4.7280e+04   2.04e-35
  4.9221e+04   2.49e-42
  5.1241e+04   1.25e-46
  5.3345e+04   1.18e-46
  5.5535e+04   1.11e-46
  5.7815e+04   1.05e-46
  6.0188e+04   9.91e-47
  6.2659e+04   9.34e-47
  6.5232e+04   8.80e-47
  6.7910e+04   8.29e-47
  7.0698e+04   7.80e-47
  7.3600e+04   7.33e-47
  7.6621e+04   6.89e-47
  7.9767e+04   6.46e-47
  8.3042e+04   6.04e-47
  8.6451e+04   5.65e-47
  9.0000e+04   5.32e-47
