#  E [GeV]   # per interaction  [GeV^{-1}]
  3.0000e+01   5.63e-01
  3.1141e+01   5.40e-01
  3.2326e+01   5.18e-01
  3.3556e+01   4.97e-01
  3.4832e+01   4.76e-01
  3.6157e+01   4.57e-01
  3.7533e+01   4.38e-01
  3.8961e+01   4.20e-01
  4.0443e+01   4.03e-01
  4.1982e+01   3.86e-01
  4.3579e+01   3.70e-01
  4.5237e+01   3.55e-01
  4.6958e+01   3.40e-01
  4.8744e+01   3.26e-01
  5.0598e+01   3.12e-01
  5.2523e+01   2.99e-01
  5.4521e+01   2.86e-01
  5.6596e+01   2.74e-01
  5.8749e+01   2.63e-01
  6.0984e+01   2.51e-01
  6.3304e+01   2.41e-01
  6.5712e+01   2.30e-01
  6.8212e+01   2.21e-01
  7.0807e+01   2.11e-01
  7.3500e+01   2.02e-01
  7.6297e+01   1.93e-01
  7.9199e+01   1.85e-01
  8.2212e+01   1.77e-01
  8.5340e+01   1.69e-01
  8.8586e+01   1.62e-01
  9.1956e+01   1.54e-01
  9.5455e+01   1.48e-01
  9.9086e+01   1.41e-01
  1.0286e+02   1.35e-01
  1.0677e+02   1.28e-01
  1.1083e+02   1.23e-01
  1.1505e+02   1.17e-01
  1.1942e+02   1.12e-01
  1.2397e+02   1.07e-01
  1.2868e+02   1.02e-01
  1.3358e+02   9.68e-02
  1.3866e+02   9.23e-02
  1.4394e+02   8.79e-02
  1.4941e+02   8.37e-02
  1.5509e+02   7.96e-02
  1.6100e+02   7.58e-02
  1.6712e+02   7.21e-02
  1.7348e+02   6.85e-02
  1.8008e+02   6.50e-02
  1.8693e+02   6.18e-02
  1.9404e+02   5.86e-02
  2.0142e+02   5.56e-02
  2.0908e+02   5.27e-02
  2.1704e+02   4.99e-02
  2.2529e+02   4.73e-02
  2.3387e+02   4.47e-02
  2.4276e+02   4.23e-02
  2.5200e+02   4.00e-02
  2.6158e+02   3.78e-02
  2.7154e+02   3.57e-02
  2.8187e+02   3.36e-02
  2.9259e+02   3.17e-02
  3.0372e+02   2.99e-02
  3.1527e+02   2.81e-02
  3.2727e+02   2.64e-02
  3.3972e+02   2.48e-02
  3.5264e+02   2.32e-02
  3.6606e+02   2.18e-02
  3.7998e+02   2.04e-02
  3.9444e+02   1.91e-02
  4.0945e+02   1.78e-02
  4.2502e+02   1.67e-02
  4.4119e+02   1.56e-02
  4.5798e+02   1.45e-02
  4.7540e+02   1.35e-02
  4.9348e+02   1.26e-02
  5.1226e+02   1.17e-02
  5.3175e+02   1.09e-02
  5.5198e+02   1.01e-02
  5.7297e+02   9.38e-03
  5.9477e+02   8.69e-03
  6.1740e+02   8.05e-03
  6.4089e+02   7.46e-03
  6.6527e+02   6.90e-03
  6.9058e+02   6.38e-03
  7.1685e+02   5.90e-03
  7.4412e+02   5.44e-03
  7.7243e+02   5.03e-03
  8.0181e+02   4.64e-03
  8.3232e+02   4.28e-03
  8.6398e+02   3.95e-03
  8.9685e+02   3.64e-03
  9.3097e+02   3.36e-03
  9.6638e+02   3.09e-03
  1.0031e+03   2.85e-03
  1.0413e+03   2.63e-03
  1.0809e+03   2.42e-03
  1.1220e+03   2.23e-03
  1.1647e+03   2.05e-03
  1.2090e+03   1.89e-03
  1.2550e+03   1.74e-03
  1.3028e+03   1.60e-03
  1.3523e+03   1.47e-03
  1.4038e+03   1.36e-03
  1.4572e+03   1.25e-03
  1.5126e+03   1.15e-03
  1.5702e+03   1.06e-03
  1.6299e+03   9.73e-04
  1.6919e+03   8.95e-04
  1.7563e+03   8.23e-04
  1.8231e+03   7.57e-04
  1.8925e+03   6.95e-04
  1.9645e+03   6.39e-04
  2.0392e+03   5.87e-04
  2.1168e+03   5.39e-04
  2.1973e+03   4.95e-04
  2.2809e+03   4.54e-04
  2.3677e+03   4.16e-04
  2.4577e+03   3.82e-04
  2.5512e+03   3.49e-04
  2.6483e+03   3.19e-04
  2.7490e+03   2.92e-04
  2.8536e+03   2.67e-04
  2.9622e+03   2.43e-04
  3.0749e+03   2.22e-04
  3.1918e+03   2.02e-04
  3.3133e+03   1.83e-04
  3.4393e+03   1.67e-04
  3.5702e+03   1.51e-04
  3.7060e+03   1.37e-04
  3.8470e+03   1.24e-04
  3.9933e+03   1.12e-04
  4.1452e+03   1.01e-04
  4.3029e+03   9.07e-05
  4.4666e+03   8.16e-05
  4.6366e+03   7.31e-05
  4.8129e+03   6.54e-05
  4.9960e+03   5.84e-05
  5.1861e+03   5.20e-05
  5.3834e+03   4.61e-05
  5.5882e+03   4.09e-05
  5.8008e+03   3.61e-05
  6.0215e+03   3.18e-05
  6.2506e+03   2.80e-05
  6.4883e+03   2.45e-05
  6.7352e+03   2.13e-05
  6.9914e+03   1.86e-05
  7.2574e+03   1.61e-05
  7.5335e+03   1.38e-05
  7.8201e+03   1.19e-05
  8.1176e+03   1.01e-05
  8.4264e+03   8.58e-06
  8.7470e+03   7.27e-06
  9.0797e+03   6.11e-06
  9.4251e+03   5.08e-06
  9.7837e+03   4.22e-06
  1.0156e+04   3.47e-06
  1.0542e+04   2.82e-06
  1.0943e+04   2.28e-06
  1.1360e+04   1.83e-06
  1.1792e+04   1.44e-06
  1.2240e+04   1.13e-06
  1.2706e+04   8.75e-07
  1.3189e+04   6.64e-07
  1.3691e+04   4.99e-07
  1.4212e+04   3.68e-07
  1.4753e+04   2.66e-07
  1.5314e+04   1.88e-07
  1.5897e+04   1.30e-07
  1.6501e+04   8.73e-08
  1.7129e+04   5.68e-08
  1.7781e+04   3.59e-08
  1.8457e+04   2.17e-08
  1.9159e+04   1.25e-08
  1.9888e+04   6.92e-09
  2.0645e+04   3.58e-09
  2.1430e+04   1.73e-09
  2.2245e+04   7.78e-10
  2.3092e+04   3.17e-10
  2.3970e+04   1.16e-10
  2.4882e+04   3.76e-11
  2.5829e+04   1.05e-11
  2.6811e+04   2.43e-12
  2.7831e+04   4.61e-13
  2.8890e+04   6.78e-14
  2.9989e+04   7.35e-15
  3.1130e+04   5.67e-16
  3.2314e+04   2.81e-17
  3.3544e+04   8.08e-19
  3.4820e+04   1.25e-20
  3.6144e+04   8.59e-23
  3.7519e+04   2.16e-25
  3.8947e+04   1.69e-28
  4.0428e+04   2.75e-32
  4.1966e+04   6.15e-37
  4.3563e+04   1.35e-42
  4.5220e+04   5.84e-46
  4.6941e+04   6.98e-46
  4.8726e+04   8.82e-46
  5.0580e+04   1.08e-45
