#  E [MeV]   Flux [# cm^{-2} s^{-1}  MeV^{-1}]
  3.0000e+04   2.22e-24
  3.0962e+04   2.13e-24
  3.1955e+04   2.05e-24
  3.2979e+04   1.96e-24
  3.4037e+04   1.88e-24
  3.5128e+04   1.81e-24
  3.6254e+04   1.74e-24
  3.7417e+04   1.67e-24
  3.8616e+04   1.60e-24
  3.9855e+04   1.53e-24
  4.1132e+04   1.47e-24
  4.2451e+04   1.41e-24
  4.3812e+04   1.35e-24
  4.5217e+04   1.29e-24
  4.6667e+04   1.24e-24
  4.8163e+04   1.19e-24
  4.9707e+04   1.14e-24
  5.1301e+04   1.09e-24
  5.2946e+04   1.04e-24
  5.4644e+04   9.99e-25
  5.6396e+04   9.57e-25
  5.8204e+04   9.15e-25
  6.0070e+04   8.76e-25
  6.1996e+04   8.38e-25
  6.3984e+04   8.01e-25
  6.6035e+04   7.66e-25
  6.8153e+04   7.33e-25
  7.0338e+04   7.00e-25
  7.2593e+04   6.69e-25
  7.4921e+04   6.40e-25
  7.7323e+04   6.11e-25
  7.9802e+04   5.83e-25
  8.2361e+04   5.57e-25
  8.5002e+04   5.32e-25
  8.7727e+04   5.07e-25
  9.0540e+04   4.84e-25
  9.3443e+04   4.62e-25
  9.6439e+04   4.40e-25
  9.9531e+04   4.20e-25
  1.0272e+05   4.00e-25
  1.0602e+05   3.81e-25
  1.0942e+05   3.62e-25
  1.1292e+05   3.45e-25
  1.1654e+05   3.28e-25
  1.2028e+05   3.12e-25
  1.2414e+05   2.97e-25
  1.2812e+05   2.82e-25
  1.3223e+05   2.68e-25
  1.3646e+05   2.55e-25
  1.4084e+05   2.42e-25
  1.4536e+05   2.30e-25
  1.5002e+05   2.18e-25
  1.5483e+05   2.06e-25
  1.5979e+05   1.96e-25
  1.6491e+05   1.86e-25
  1.7020e+05   1.76e-25
  1.7566e+05   1.66e-25
  1.8129e+05   1.58e-25
  1.8710e+05   1.49e-25
  1.9310e+05   1.41e-25
  1.9929e+05   1.33e-25
  2.0568e+05   1.26e-25
  2.1228e+05   1.19e-25
  2.1909e+05   1.12e-25
  2.2611e+05   1.06e-25
  2.3336e+05   9.99e-26
  2.4084e+05   9.41e-26
  2.4856e+05   8.87e-26
  2.5653e+05   8.35e-26
  2.6476e+05   7.86e-26
  2.7325e+05   7.39e-26
  2.8201e+05   6.95e-26
  2.9105e+05   6.53e-26
  3.0038e+05   6.13e-26
  3.1002e+05   5.75e-26
  3.1996e+05   5.39e-26
  3.3021e+05   5.05e-26
  3.4080e+05   4.73e-26
  3.5173e+05   4.42e-26
  3.6301e+05   4.14e-26
  3.7465e+05   3.86e-26
  3.8666e+05   3.61e-26
  3.9905e+05   3.36e-26
  4.1185e+05   3.14e-26
  4.2506e+05   2.92e-26
  4.3868e+05   2.72e-26
  4.5275e+05   2.53e-26
  4.6727e+05   2.35e-26
  4.8225e+05   2.18e-26
  4.9771e+05   2.02e-26
  5.1367e+05   1.87e-26
  5.3014e+05   1.73e-26
  5.4714e+05   1.60e-26
  5.6468e+05   1.48e-26
  5.8278e+05   1.37e-26
  6.0147e+05   1.26e-26
  6.2075e+05   1.17e-26
  6.4066e+05   1.08e-26
  6.6120e+05   9.91e-27
  6.8240e+05   9.11e-27
  7.0428e+05   8.39e-27
  7.2686e+05   7.72e-27
  7.5017e+05   7.08e-27
  7.7422e+05   6.50e-27
  7.9904e+05   5.96e-27
  8.2466e+05   5.46e-27
  8.5110e+05   4.99e-27
  8.7839e+05   4.57e-27
  9.0656e+05   4.18e-27
  9.3562e+05   3.82e-27
  9.6562e+05   3.48e-27
  9.9658e+05   3.18e-27
  1.0285e+06   2.90e-27
  1.0615e+06   2.64e-27
  1.0956e+06   2.40e-27
  1.1307e+06   2.19e-27
  1.1669e+06   1.99e-27
  1.2043e+06   1.81e-27
  1.2430e+06   1.65e-27
  1.2828e+06   1.50e-27
  1.3239e+06   1.36e-27
  1.3664e+06   1.23e-27
  1.4102e+06   1.12e-27
  1.4554e+06   1.01e-27
  1.5021e+06   9.13e-28
  1.5502e+06   8.25e-28
  1.6000e+06   7.47e-28
  1.6513e+06   6.74e-28
  1.7042e+06   6.06e-28
  1.7588e+06   5.48e-28
  1.8152e+06   4.94e-28
  1.8734e+06   4.44e-28
  1.9335e+06   3.98e-28
  1.9955e+06   3.60e-28
  2.0595e+06   3.23e-28
  2.1255e+06   2.89e-28
  2.1937e+06   2.59e-28
  2.2640e+06   2.33e-28
  2.3366e+06   2.09e-28
  2.4115e+06   1.86e-28
  2.4888e+06   1.67e-28
  2.5686e+06   1.49e-28
  2.6510e+06   1.33e-28
  2.7360e+06   1.18e-28
  2.8237e+06   1.06e-28
  2.9142e+06   9.41e-29
  3.0077e+06   8.32e-29
  3.1041e+06   7.40e-29
  3.2036e+06   6.59e-29
  3.3064e+06   5.83e-29
  3.4124e+06   5.12e-29
  3.5218e+06   4.56e-29
  3.6347e+06   4.04e-29
  3.7512e+06   3.56e-29
  3.8715e+06   3.13e-29
  3.9957e+06   2.78e-29
  4.1238e+06   2.45e-29
  4.2560e+06   2.14e-29
  4.3924e+06   1.89e-29
  4.5333e+06   1.67e-29
  4.6786e+06   1.47e-29
  4.8286e+06   1.28e-29
  4.9835e+06   1.13e-29
  5.1433e+06   9.98e-30
  5.3082e+06   8.72e-30
  5.4784e+06   7.64e-30
  5.6540e+06   6.76e-30
  5.8353e+06   5.93e-30
  6.0224e+06   5.17e-30
  6.2155e+06   4.56e-30
  6.4148e+06   4.04e-30
  6.6205e+06   3.55e-30
  6.8327e+06   3.10e-30
  7.0518e+06   2.76e-30
  7.2779e+06   2.44e-30
  7.5113e+06   2.15e-30
  7.7521e+06   1.89e-30
  8.0007e+06   1.68e-30
  8.2572e+06   1.48e-30
  8.5219e+06   1.30e-30
  8.7952e+06   1.15e-30
  9.0772e+06   1.01e-30
  9.3682e+06   8.89e-31
  9.6686e+06   7.77e-31
  9.9786e+06   6.84e-31
  1.0299e+07   5.99e-31
  1.0629e+07   5.21e-31
  1.0970e+07   4.52e-31
  1.1321e+07   3.92e-31
  1.1684e+07   3.38e-31
  1.2059e+07   2.89e-31
  1.2446e+07   2.45e-31
  1.2845e+07   2.07e-31
  1.3256e+07   1.72e-31
  1.3681e+07   1.42e-31
  1.4120e+07   1.16e-31
  1.4573e+07   9.34e-32
  1.5040e+07   7.41e-32
  1.5522e+07   5.87e-32
  1.6020e+07   4.63e-32
