#  E [MeV]   Flux [# cm^{-2} s^{-1}  MeV^{-1}]
  3.0000e+04   2.45e-23
  3.0782e+04   2.36e-23
  3.1585e+04   2.28e-23
  3.2409e+04   2.20e-23
  3.3255e+04   2.13e-23
  3.4122e+04   2.05e-23
  3.5012e+04   1.98e-23
  3.5925e+04   1.91e-23
  3.6862e+04   1.84e-23
  3.7824e+04   1.78e-23
  3.8810e+04   1.72e-23
  3.9822e+04   1.66e-23
  4.0861e+04   1.60e-23
  4.1927e+04   1.54e-23
  4.3021e+04   1.49e-23
  4.4143e+04   1.43e-23
  4.5294e+04   1.38e-23
  4.6475e+04   1.33e-23
  4.7688e+04   1.28e-23
  4.8931e+04   1.24e-23
  5.0208e+04   1.19e-23
  5.1517e+04   1.15e-23
  5.2861e+04   1.11e-23
  5.4240e+04   1.07e-23
  5.5654e+04   1.03e-23
  5.7106e+04   9.91e-24
  5.8596e+04   9.55e-24
  6.0124e+04   9.20e-24
  6.1692e+04   8.86e-24
  6.3301e+04   8.54e-24
  6.4952e+04   8.22e-24
  6.6647e+04   7.92e-24
  6.8385e+04   7.63e-24
  7.0169e+04   7.34e-24
  7.1999e+04   7.07e-24
  7.3877e+04   6.81e-24
  7.5804e+04   6.55e-24
  7.7781e+04   6.31e-24
  7.9810e+04   6.07e-24
  8.1891e+04   5.85e-24
  8.4027e+04   5.63e-24
  8.6219e+04   5.42e-24
  8.8468e+04   5.21e-24
  9.0775e+04   5.02e-24
  9.3143e+04   4.83e-24
  9.5572e+04   4.65e-24
  9.8065e+04   4.48e-24
  1.0062e+05   4.31e-24
  1.0325e+05   4.15e-24
  1.0594e+05   3.99e-24
  1.0870e+05   3.84e-24
  1.1154e+05   3.70e-24
  1.1445e+05   3.56e-24
  1.1743e+05   3.43e-24
  1.2050e+05   3.30e-24
  1.2364e+05   3.18e-24
  1.2686e+05   3.06e-24
  1.3017e+05   2.94e-24
  1.3357e+05   2.83e-24
  1.3705e+05   2.73e-24
  1.4063e+05   2.62e-24
  1.4429e+05   2.53e-24
  1.4806e+05   2.43e-24
  1.5192e+05   2.34e-24
  1.5588e+05   2.26e-24
  1.5995e+05   2.17e-24
  1.6412e+05   2.09e-24
  1.6840e+05   2.01e-24
  1.7279e+05   1.94e-24
  1.7730e+05   1.87e-24
  1.8193e+05   1.80e-24
  1.8667e+05   1.73e-24
  1.9154e+05   1.67e-24
  1.9654e+05   1.61e-24
  2.0166e+05   1.55e-24
  2.0692e+05   1.49e-24
  2.1232e+05   1.44e-24
  2.1786e+05   1.38e-24
  2.2354e+05   1.33e-24
  2.2937e+05   1.28e-24
  2.3535e+05   1.24e-24
  2.4149e+05   1.19e-24
  2.4779e+05   1.15e-24
  2.5425e+05   1.11e-24
  2.6088e+05   1.07e-24
  2.6769e+05   1.03e-24
  2.7467e+05   9.93e-25
  2.8184e+05   9.57e-25
  2.8919e+05   9.23e-25
  2.9673e+05   8.91e-25
  3.0447e+05   8.59e-25
  3.1241e+05   8.28e-25
  3.2056e+05   7.99e-25
  3.2892e+05   7.71e-25
  3.3750e+05   7.44e-25
  3.4630e+05   7.17e-25
  3.5533e+05   6.92e-25
  3.6460e+05   6.68e-25
  3.7411e+05   6.44e-25
  3.8387e+05   6.22e-25
  3.9388e+05   6.00e-25
  4.0416e+05   5.79e-25
  4.1470e+05   5.59e-25
  4.2551e+05   5.40e-25
  4.3661e+05   5.22e-25
  4.4800e+05   5.04e-25
  4.5969e+05   4.86e-25
  4.7168e+05   4.70e-25
  4.8398e+05   4.54e-25
  4.9660e+05   4.38e-25
  5.0956e+05   4.23e-25
  5.2285e+05   4.09e-25
  5.3648e+05   3.95e-25
  5.5048e+05   3.81e-25
  5.6483e+05   3.68e-25
  5.7957e+05   3.56e-25
  5.9468e+05   3.44e-25
  6.1020e+05   3.32e-25
  6.2611e+05   3.21e-25
  6.4244e+05   3.10e-25
  6.5920e+05   3.00e-25
  6.7639e+05   2.90e-25
  6.9403e+05   2.80e-25
  7.1214e+05   2.70e-25
  7.3071e+05   2.61e-25
  7.4977e+05   2.53e-25
  7.6933e+05   2.44e-25
  7.8939e+05   2.36e-25
  8.0998e+05   2.28e-25
  8.3111e+05   2.21e-25
  8.5279e+05   2.13e-25
  8.7503e+05   2.06e-25
  8.9785e+05   1.99e-25
  9.2127e+05   1.93e-25
  9.4530e+05   1.86e-25
  9.6996e+05   1.80e-25
  9.9526e+05   1.74e-25
  1.0212e+06   1.68e-25
  1.0479e+06   1.63e-25
  1.0752e+06   1.57e-25
  1.1032e+06   1.52e-25
  1.1320e+06   1.47e-25
  1.1615e+06   1.42e-25
  1.1918e+06   1.37e-25
  1.2229e+06   1.33e-25
  1.2548e+06   1.28e-25
  1.2875e+06   1.24e-25
  1.3211e+06   1.20e-25
  1.3556e+06   1.16e-25
  1.3909e+06   1.12e-25
  1.4272e+06   1.08e-25
  1.4644e+06   1.04e-25
  1.5026e+06   1.01e-25
  1.5418e+06   9.73e-26
  1.5820e+06   9.40e-26
  1.6233e+06   9.08e-26
  1.6657e+06   8.76e-26
  1.7091e+06   8.46e-26
  1.7537e+06   8.16e-26
  1.7994e+06   7.88e-26
  1.8464e+06   7.60e-26
  1.8945e+06   7.34e-26
  1.9439e+06   7.08e-26
  1.9946e+06   6.83e-26
  2.0467e+06   6.59e-26
  2.1000e+06   6.35e-26
  2.1548e+06   6.13e-26
  2.2110e+06   5.91e-26
  2.2687e+06   5.69e-26
  2.3279e+06   5.49e-26
  2.3886e+06   5.29e-26
  2.4509e+06   5.10e-26
  2.5148e+06   4.91e-26
  2.5804e+06   4.73e-26
  2.6477e+06   4.55e-26
  2.7168e+06   4.38e-26
  2.7876e+06   4.22e-26
  2.8603e+06   4.06e-26
  2.9349e+06   3.90e-26
  3.0115e+06   3.75e-26
  3.0900e+06   3.61e-26
  3.1706e+06   3.47e-26
  3.2533e+06   3.34e-26
  3.3382e+06   3.21e-26
  3.4253e+06   3.09e-26
  3.5146e+06   2.96e-26
  3.6063e+06   2.85e-26
  3.7003e+06   2.74e-26
  3.7969e+06   2.63e-26
  3.8959e+06   2.52e-26
  3.9975e+06   2.42e-26
  4.1018e+06   2.32e-26
  4.2088e+06   2.23e-26
  4.3185e+06   2.14e-26
  4.4312e+06   2.05e-26
  4.5467e+06   1.96e-26
  4.6653e+06   1.88e-26
  4.7870e+06   1.80e-26
  4.9119e+06   1.72e-26
  5.0400e+06   1.66e-26
