#  E [MeV]   Flux [# cm^{-2} s^{-1}  MeV^{-1}]
  3.0000e+04   1.40e-26
  3.1051e+04   1.34e-26
  3.2139e+04   1.29e-26
  3.3266e+04   1.24e-26
  3.4432e+04   1.20e-26
  3.5638e+04   1.15e-26
  3.6887e+04   1.10e-26
  3.8180e+04   1.06e-26
  3.9518e+04   1.02e-26
  4.0903e+04   9.80e-27
  4.2336e+04   9.41e-27
  4.3820e+04   9.04e-27
  4.5355e+04   8.67e-27
  4.6945e+04   8.33e-27
  4.8590e+04   7.99e-27
  5.0293e+04   7.66e-27
  5.2055e+04   7.35e-27
  5.3879e+04   7.05e-27
  5.5767e+04   6.75e-27
  5.7722e+04   6.47e-27
  5.9745e+04   6.20e-27
  6.1838e+04   5.94e-27
  6.4005e+04   5.69e-27
  6.6248e+04   5.45e-27
  6.8570e+04   5.21e-27
  7.0973e+04   4.99e-27
  7.3460e+04   4.77e-27
  7.6034e+04   4.57e-27
  7.8699e+04   4.37e-27
  8.1457e+04   4.18e-27
  8.4311e+04   3.99e-27
  8.7266e+04   3.81e-27
  9.0324e+04   3.64e-27
  9.3490e+04   3.48e-27
  9.6766e+04   3.32e-27
  1.0016e+05   3.17e-27
  1.0367e+05   3.02e-27
  1.0730e+05   2.88e-27
  1.1106e+05   2.75e-27
  1.1495e+05   2.62e-27
  1.1898e+05   2.50e-27
  1.2315e+05   2.38e-27
  1.2747e+05   2.27e-27
  1.3193e+05   2.16e-27
  1.3656e+05   2.06e-27
  1.4134e+05   1.96e-27
  1.4629e+05   1.86e-27
  1.5142e+05   1.77e-27
  1.5673e+05   1.68e-27
  1.6222e+05   1.60e-27
  1.6790e+05   1.52e-27
  1.7379e+05   1.44e-27
  1.7988e+05   1.37e-27
  1.8618e+05   1.30e-27
  1.9271e+05   1.23e-27
  1.9946e+05   1.17e-27
  2.0645e+05   1.11e-27
  2.1369e+05   1.05e-27
  2.2117e+05   9.93e-28
  2.2892e+05   9.40e-28
  2.3695e+05   8.89e-28
  2.4525e+05   8.40e-28
  2.5385e+05   7.94e-28
  2.6274e+05   7.50e-28
  2.7195e+05   7.08e-28
  2.8148e+05   6.68e-28
  2.9134e+05   6.30e-28
  3.0155e+05   5.94e-28
  3.1212e+05   5.60e-28
  3.2306e+05   5.28e-28
  3.3438e+05   4.96e-28
  3.4610e+05   4.67e-28
  3.5823e+05   4.39e-28
  3.7078e+05   4.13e-28
  3.8377e+05   3.88e-28
  3.9722e+05   3.64e-28
  4.1114e+05   3.41e-28
  4.2555e+05   3.20e-28
  4.4046e+05   3.00e-28
  4.5590e+05   2.81e-28
  4.7188e+05   2.63e-28
  4.8841e+05   2.46e-28
  5.0553e+05   2.30e-28
  5.2324e+05   2.15e-28
  5.4158e+05   2.01e-28
  5.6056e+05   1.88e-28
  5.8020e+05   1.76e-28
  6.0054e+05   1.64e-28
  6.2158e+05   1.53e-28
  6.4337e+05   1.43e-28
  6.6591e+05   1.34e-28
  6.8925e+05   1.25e-28
  7.1340e+05   1.16e-28
  7.3840e+05   1.09e-28
  7.6428e+05   1.01e-28
  7.9106e+05   9.45e-29
  8.1878e+05   8.82e-29
  8.4748e+05   8.23e-29
  8.7718e+05   7.69e-29
  9.0792e+05   7.18e-29
  9.3973e+05   6.71e-29
  9.7267e+05   6.27e-29
  1.0068e+06   5.86e-29
  1.0420e+06   5.48e-29
  1.0785e+06   5.13e-29
  1.1163e+06   4.80e-29
  1.1555e+06   4.50e-29
  1.1960e+06   4.21e-29
  1.2379e+06   3.95e-29
  1.2813e+06   3.71e-29
  1.3262e+06   3.48e-29
  1.3726e+06   3.27e-29
  1.4207e+06   3.07e-29
  1.4705e+06   2.89e-29
  1.5220e+06   2.72e-29
  1.5754e+06   2.56e-29
  1.6306e+06   2.41e-29
  1.6877e+06   2.27e-29
  1.7469e+06   2.14e-29
  1.8081e+06   2.02e-29
  1.8715e+06   1.90e-29
  1.9370e+06   1.80e-29
  2.0049e+06   1.70e-29
  2.0752e+06   1.60e-29
  2.1479e+06   1.52e-29
  2.2232e+06   1.44e-29
  2.3011e+06   1.36e-29
  2.3817e+06   1.28e-29
  2.4652e+06   1.22e-29
  2.5516e+06   1.15e-29
  2.6410e+06   1.09e-29
  2.7336e+06   1.03e-29
  2.8294e+06   9.77e-30
  2.9285e+06   9.25e-30
  3.0311e+06   8.75e-30
  3.1374e+06   8.29e-30
  3.2473e+06   7.84e-30
  3.3611e+06   7.41e-30
  3.4789e+06   7.01e-30
  3.6008e+06   6.63e-30
  3.7270e+06   6.27e-30
  3.8576e+06   5.92e-30
  3.9928e+06   5.59e-30
  4.1327e+06   5.28e-30
  4.2775e+06   4.97e-30
  4.4274e+06   4.69e-30
  4.5826e+06   4.41e-30
  4.7432e+06   4.15e-30
  4.9094e+06   3.89e-30
  5.0815e+06   3.65e-30
  5.2595e+06   3.42e-30
  5.4438e+06   3.19e-30
  5.6346e+06   2.98e-30
  5.8321e+06   2.77e-30
  6.0365e+06   2.58e-30
  6.2480e+06   2.39e-30
  6.4670e+06   2.21e-30
  6.6936e+06   2.04e-30
  6.9282e+06   1.88e-30
  7.1709e+06   1.73e-30
  7.4222e+06   1.58e-30
  7.6823e+06   1.44e-30
  7.9516e+06   1.31e-30
  8.2302e+06   1.19e-30
  8.5186e+06   1.07e-30
  8.8172e+06   9.60e-31
  9.1262e+06   8.58e-31
  9.4460e+06   7.62e-31
  9.7770e+06   6.73e-31
  1.0120e+07   5.91e-31
  1.0474e+07   5.15e-31
  1.0841e+07   4.45e-31
  1.1221e+07   3.82e-31
  1.1614e+07   3.24e-31
  1.2022e+07   2.73e-31
  1.2443e+07   2.27e-31
  1.2879e+07   1.87e-31
  1.3330e+07   1.52e-31
  1.3797e+07   1.21e-31
  1.4281e+07   9.54e-32
  1.4781e+07   7.38e-32
  1.5299e+07   5.60e-32
  1.5835e+07   4.15e-32
  1.6390e+07   3.01e-32
  1.6965e+07   2.12e-32
  1.7559e+07   1.45e-32
  1.8175e+07   9.56e-33
  1.8812e+07   6.07e-33
  1.9471e+07   3.69e-33
  2.0153e+07   2.14e-33
  2.0859e+07   1.17e-33
  2.1590e+07   6.00e-34
  2.2347e+07   2.86e-34
  2.3130e+07   1.25e-34
  2.3941e+07   4.99e-35
  2.4780e+07   1.77e-35
  2.5648e+07   5.55e-36
  2.6547e+07   1.49e-36
  2.7477e+07   3.39e-37
  2.8440e+07   6.27e-38
