#  E [GeV]   # per interaction  [GeV^{-1}]
  3.0000e+01   9.17e-01
  3.1033e+01   8.79e-01
  3.2102e+01   8.42e-01
  3.3207e+01   8.07e-01
  3.4350e+01   7.73e-01
  3.5533e+01   7.41e-01
  3.6757e+01   7.10e-01
  3.8022e+01   6.80e-01
  3.9332e+01   6.51e-01
  4.0686e+01   6.23e-01
  4.2087e+01   5.96e-01
  4.3536e+01   5.71e-01
  4.5035e+01   5.46e-01
  4.6586e+01   5.23e-01
  4.8190e+01   5.00e-01
  4.9850e+01   4.78e-01
  5.1566e+01   4.57e-01
  5.3342e+01   4.37e-01
  5.5178e+01   4.18e-01
  5.7078e+01   3.99e-01
  5.9044e+01   3.82e-01
  6.1077e+01   3.65e-01
  6.3180e+01   3.48e-01
  6.5356e+01   3.33e-01
  6.7606e+01   3.18e-01
  6.9934e+01   3.03e-01
  7.2342e+01   2.90e-01
  7.4833e+01   2.76e-01
  7.7410e+01   2.64e-01
  8.0075e+01   2.52e-01
  8.2833e+01   2.40e-01
  8.5685e+01   2.29e-01
  8.8635e+01   2.18e-01
  9.1687e+01   2.08e-01
  9.4844e+01   1.98e-01
  9.8110e+01   1.89e-01
  1.0149e+02   1.80e-01
  1.0498e+02   1.71e-01
  1.0860e+02   1.63e-01
  1.1234e+02   1.55e-01
  1.1621e+02   1.47e-01
  1.2021e+02   1.40e-01
  1.2435e+02   1.33e-01
  1.2863e+02   1.27e-01
  1.3306e+02   1.20e-01
  1.3764e+02   1.14e-01
  1.4238e+02   1.08e-01
  1.4728e+02   1.03e-01
  1.5235e+02   9.76e-02
  1.5760e+02   9.25e-02
  1.6302e+02   8.77e-02
  1.6864e+02   8.31e-02
  1.7445e+02   7.86e-02
  1.8045e+02   7.44e-02
  1.8667e+02   7.04e-02
  1.9309e+02   6.65e-02
  1.9974e+02   6.29e-02
  2.0662e+02   5.94e-02
  2.1373e+02   5.60e-02
  2.2109e+02   5.29e-02
  2.2871e+02   4.98e-02
  2.3658e+02   4.70e-02
  2.4473e+02   4.42e-02
  2.5316e+02   4.16e-02
  2.6187e+02   3.92e-02
  2.7089e+02   3.68e-02
  2.8022e+02   3.46e-02
  2.8987e+02   3.25e-02
  2.9985e+02   3.05e-02
  3.1017e+02   2.86e-02
  3.2085e+02   2.68e-02
  3.3190e+02   2.50e-02
  3.4333e+02   2.34e-02
  3.5515e+02   2.19e-02
  3.6738e+02   2.05e-02
  3.8003e+02   1.91e-02
  3.9312e+02   1.78e-02
  4.0665e+02   1.66e-02
  4.2066e+02   1.55e-02
  4.3514e+02   1.44e-02
  4.5013e+02   1.34e-02
  4.6562e+02   1.25e-02
  4.8166e+02   1.16e-02
  4.9824e+02   1.07e-02
  5.1540e+02   9.95e-03
  5.3315e+02   9.21e-03
  5.5150e+02   8.53e-03
  5.7050e+02   7.89e-03
  5.9014e+02   7.29e-03
  6.1046e+02   6.73e-03
  6.3148e+02   6.21e-03
  6.5322e+02   5.73e-03
  6.7572e+02   5.27e-03
  6.9898e+02   4.85e-03
  7.2305e+02   4.47e-03
  7.4795e+02   4.10e-03
  7.7371e+02   3.77e-03
  8.0035e+02   3.46e-03
  8.2791e+02   3.18e-03
  8.5641e+02   2.91e-03
  8.8590e+02   2.67e-03
  9.1641e+02   2.45e-03
  9.4796e+02   2.24e-03
  9.8061e+02   2.05e-03
  1.0144e+03   1.87e-03
  1.0493e+03   1.71e-03
  1.0854e+03   1.56e-03
  1.1228e+03   1.43e-03
  1.1615e+03   1.30e-03
  1.2015e+03   1.19e-03
  1.2428e+03   1.08e-03
  1.2856e+03   9.87e-04
  1.3299e+03   8.97e-04
  1.3757e+03   8.17e-04
  1.4231e+03   7.44e-04
  1.4721e+03   6.75e-04
  1.5228e+03   6.12e-04
  1.5752e+03   5.57e-04
  1.6294e+03   5.05e-04
  1.6855e+03   4.57e-04
  1.7436e+03   4.15e-04
  1.8036e+03   3.76e-04
  1.8657e+03   3.40e-04
  1.9300e+03   3.07e-04
  1.9964e+03   2.78e-04
  2.0652e+03   2.51e-04
  2.1363e+03   2.25e-04
  2.2098e+03   2.04e-04
  2.2859e+03   1.84e-04
  2.3646e+03   1.65e-04
  2.4461e+03   1.48e-04
  2.5303e+03   1.33e-04
  2.6174e+03   1.19e-04
  2.7075e+03   1.06e-04
  2.8008e+03   9.54e-05
  2.8972e+03   8.52e-05
  2.9970e+03   7.57e-05
  3.1002e+03   6.76e-05
  3.2069e+03   6.03e-05
  3.3173e+03   5.34e-05
  3.4316e+03   4.74e-05
  3.5497e+03   4.21e-05
  3.6720e+03   3.72e-05
  3.7984e+03   3.27e-05
  3.9292e+03   2.90e-05
  4.0645e+03   2.56e-05
  4.2044e+03   2.24e-05
  4.3492e+03   1.97e-05
  4.4990e+03   1.73e-05
  4.6539e+03   1.51e-05
  4.8141e+03   1.32e-05
  4.9799e+03   1.16e-05
  5.1514e+03   1.01e-05
  5.3288e+03   8.66e-06
  5.5123e+03   7.56e-06
  5.7021e+03   6.56e-06
  5.8984e+03   5.64e-06
  6.1015e+03   4.86e-06
  6.3116e+03   4.21e-06
  6.5289e+03   3.61e-06
  6.7538e+03   3.07e-06
  6.9863e+03   2.65e-06
  7.2269e+03   2.27e-06
  7.4757e+03   1.92e-06
  7.7331e+03   1.64e-06
  7.9994e+03   1.40e-06
  8.2749e+03   1.18e-06
  8.5598e+03   9.95e-07
  8.8546e+03   8.46e-07
  9.1594e+03   7.11e-07
  9.4748e+03   5.91e-07
  9.8011e+03   4.98e-07
  1.0139e+04   4.18e-07
  1.0488e+04   3.46e-07
  1.0849e+04   2.87e-07
  1.1222e+04   2.38e-07
  1.1609e+04   1.96e-07
  1.2009e+04   1.59e-07
  1.2422e+04   1.30e-07
  1.2850e+04   1.05e-07
  1.3292e+04   8.39e-08
  1.3750e+04   6.66e-08
  1.4223e+04   5.25e-08
  1.4713e+04   4.06e-08
  1.5220e+04   3.10e-08
  1.5744e+04   2.35e-08
  1.6286e+04   1.74e-08
  1.6847e+04   1.26e-08
  1.7427e+04   8.96e-09
  1.8027e+04   6.20e-09
  1.8648e+04   4.16e-09
  1.9290e+04   2.69e-09
  1.9954e+04   1.67e-09
  2.0641e+04   9.90e-10
  2.1352e+04   5.57e-10
  2.2087e+04   2.95e-10
  2.2848e+04   1.46e-10
  2.3634e+04   6.68e-11
  2.4448e+04   2.84e-11
  2.5290e+04   1.10e-11
