#  E [MeV]   Flux [# cm^{-2} s^{-1}  MeV^{-1}]
  3.0000e+04   4.68e-25
  3.1141e+04   4.48e-25
  3.2326e+04   4.28e-25
  3.3556e+04   4.09e-25
  3.4832e+04   3.91e-25
  3.6157e+04   3.74e-25
  3.7533e+04   3.57e-25
  3.8961e+04   3.41e-25
  4.0443e+04   3.26e-25
  4.1982e+04   3.11e-25
  4.3579e+04   2.97e-25
  4.5237e+04   2.83e-25
  4.6958e+04   2.70e-25
  4.8744e+04   2.58e-25
  5.0598e+04   2.46e-25
  5.2523e+04   2.35e-25
  5.4521e+04   2.24e-25
  5.6596e+04   2.13e-25
  5.8749e+04   2.04e-25
  6.0984e+04   1.94e-25
  6.3304e+04   1.85e-25
  6.5712e+04   1.76e-25
  6.8212e+04   1.68e-25
  7.0807e+04   1.60e-25
  7.3500e+04   1.52e-25
  7.6297e+04   1.45e-25
  7.9199e+04   1.38e-25
  8.2212e+04   1.31e-25
  8.5340e+04   1.25e-25
  8.8586e+04   1.19e-25
  9.1956e+04   1.13e-25
  9.5455e+04   1.07e-25
  9.9086e+04   1.02e-25
  1.0286e+05   9.71e-26
  1.0677e+05   9.23e-26
  1.1083e+05   8.77e-26
  1.1505e+05   8.33e-26
  1.1942e+05   7.91e-26
  1.2397e+05   7.50e-26
  1.2868e+05   7.12e-26
  1.3358e+05   6.76e-26
  1.3866e+05   6.41e-26
  1.4394e+05   6.07e-26
  1.4941e+05   5.76e-26
  1.5509e+05   5.45e-26
  1.6100e+05   5.17e-26
  1.6712e+05   4.89e-26
  1.7348e+05   4.63e-26
  1.8008e+05   4.38e-26
  1.8693e+05   4.14e-26
  1.9404e+05   3.91e-26
  2.0142e+05   3.70e-26
  2.0908e+05   3.49e-26
  2.1704e+05   3.29e-26
  2.2529e+05   3.11e-26
  2.3387e+05   2.93e-26
  2.4276e+05   2.76e-26
  2.5200e+05   2.60e-26
  2.6158e+05   2.45e-26
  2.7154e+05   2.30e-26
  2.8187e+05   2.16e-26
  2.9259e+05   2.03e-26
  3.0372e+05   1.91e-26
  3.1527e+05   1.79e-26
  3.2727e+05   1.68e-26
  3.3972e+05   1.57e-26
  3.5264e+05   1.47e-26
  3.6606e+05   1.37e-26
  3.7998e+05   1.28e-26
  3.9444e+05   1.20e-26
  4.0945e+05   1.12e-26
  4.2502e+05   1.04e-26
  4.4119e+05   9.69e-27
  4.5798e+05   9.02e-27
  4.7540e+05   8.38e-27
  4.9348e+05   7.79e-27
  5.1226e+05   7.23e-27
  5.3175e+05   6.70e-27
  5.5198e+05   6.21e-27
  5.7297e+05   5.76e-27
  5.9477e+05   5.33e-27
  6.1740e+05   4.93e-27
  6.4089e+05   4.55e-27
  6.6527e+05   4.21e-27
  6.9058e+05   3.88e-27
  7.1685e+05   3.58e-27
  7.4412e+05   3.31e-27
  7.7243e+05   3.05e-27
  8.0181e+05   2.81e-27
  8.3232e+05   2.59e-27
  8.6398e+05   2.38e-27
  8.9685e+05   2.19e-27
  9.3097e+05   2.02e-27
  9.6638e+05   1.85e-27
  1.0031e+06   1.70e-27
  1.0413e+06   1.56e-27
  1.0809e+06   1.44e-27
  1.1220e+06   1.32e-27
  1.1647e+06   1.21e-27
  1.2090e+06   1.11e-27
  1.2550e+06   1.02e-27
  1.3028e+06   9.35e-28
  1.3523e+06   8.56e-28
  1.4038e+06   7.85e-28
  1.4572e+06   7.19e-28
  1.5126e+06   6.57e-28
  1.5702e+06   6.02e-28
  1.6299e+06   5.50e-28
  1.6919e+06   5.03e-28
  1.7563e+06   4.60e-28
  1.8231e+06   4.20e-28
  1.8925e+06   3.83e-28
  1.9645e+06   3.49e-28
  2.0392e+06   3.18e-28
  2.1168e+06   2.90e-28
  2.1973e+06   2.64e-28
  2.2809e+06   2.40e-28
  2.3677e+06   2.18e-28
  2.4577e+06   1.98e-28
  2.5512e+06   1.79e-28
  2.6483e+06   1.62e-28
  2.7490e+06   1.47e-28
  2.8536e+06   1.33e-28
  2.9622e+06   1.19e-28
  3.0749e+06   1.08e-28
  3.1918e+06   9.69e-29
  3.3133e+06   8.69e-29
  3.4393e+06   7.79e-29
  3.5702e+06   6.99e-29
  3.7060e+06   6.24e-29
  3.8470e+06   5.56e-29
  3.9933e+06   4.97e-29
  4.1452e+06   4.42e-29
  4.3029e+06   3.91e-29
  4.4666e+06   3.47e-29
  4.6366e+06   3.07e-29
  4.8129e+06   2.70e-29
  4.9960e+06   2.38e-29
  5.1861e+06   2.09e-29
  5.3834e+06   1.82e-29
  5.5882e+06   1.59e-29
  5.8008e+06   1.39e-29
  6.0215e+06   1.20e-29
  6.2506e+06   1.04e-29
  6.4883e+06   8.96e-30
  6.7352e+06   7.66e-30
  6.9914e+06   6.58e-30
  7.2574e+06   5.62e-30
  7.5335e+06   4.75e-30
  7.8201e+06   4.03e-30
  8.1176e+06   3.41e-30
  8.4264e+06   2.84e-30
  8.7470e+06   2.38e-30
  9.0797e+06   1.98e-30
  9.4251e+06   1.63e-30
  9.7837e+06   1.34e-30
  1.0156e+07   1.09e-30
  1.0542e+07   8.81e-31
  1.0943e+07   7.07e-31
  1.1360e+07   5.67e-31
  1.1792e+07   4.46e-31
  1.2240e+07   3.48e-31
  1.2706e+07   2.71e-31
  1.3189e+07   2.07e-31
  1.3691e+07   1.56e-31
  1.4212e+07   1.17e-31
  1.4753e+07   8.61e-32
  1.5314e+07   6.18e-32
  1.5897e+07   4.42e-32
  1.6501e+07   3.06e-32
  1.7129e+07   2.06e-32
  1.7781e+07   1.37e-32
  1.8457e+07   8.74e-33
  1.9159e+07   5.34e-33
  1.9888e+07   3.20e-33
  2.0645e+07   1.81e-33
  2.1430e+07   9.60e-34
  2.2245e+07   4.88e-34
  2.3092e+07   2.29e-34
  2.3970e+07   9.77e-35
  2.4882e+07   3.82e-35
  2.5829e+07   1.32e-35
  2.6811e+07   3.92e-36
  2.7831e+07   9.91e-37
  2.8890e+07   2.04e-37
  2.9989e+07   3.29e-38
  3.1130e+07   3.98e-39
  3.2314e+07   3.38e-40
  3.3544e+07   1.86e-41
  3.4820e+07   6.03e-43
  3.6144e+07   1.02e-44
  3.7519e+07   7.67e-47
  3.8947e+07   2.09e-49
  4.0428e+07   1.60e-52
  4.1966e+07   2.43e-56
  4.3563e+07   4.73e-61
  4.5220e+07   6.50e-67
  4.6941e+07   5.57e-72
  4.8726e+07   5.05e-72
  5.0580e+07   4.63e-72
