#  E [MeV]   Flux [# cm^{-2} s^{-1}  MeV^{-1}]
  3.0000e+04   4.60e-26
  3.1232e+04   4.40e-26
  3.2514e+04   4.21e-26
  3.3849e+04   4.02e-26
  3.5238e+04   3.84e-26
  3.6685e+04   3.68e-26
  3.8191e+04   3.51e-26
  3.9759e+04   3.36e-26
  4.1391e+04   3.21e-26
  4.3090e+04   3.07e-26
  4.4859e+04   2.93e-26
  4.6701e+04   2.80e-26
  4.8618e+04   2.68e-26
  5.0614e+04   2.56e-26
  5.2692e+04   2.44e-26
  5.4855e+04   2.33e-26
  5.7107e+04   2.23e-26
  5.9451e+04   2.13e-26
  6.1892e+04   2.03e-26
  6.4433e+04   1.94e-26
  6.7078e+04   1.85e-26
  6.9832e+04   1.77e-26
  7.2699e+04   1.68e-26
  7.5683e+04   1.61e-26
  7.8790e+04   1.53e-26
  8.2025e+04   1.46e-26
  8.5392e+04   1.39e-26
  8.8898e+04   1.33e-26
  9.2547e+04   1.27e-26
  9.6347e+04   1.21e-26
  1.0030e+05   1.15e-26
  1.0442e+05   1.10e-26
  1.0871e+05   1.04e-26
  1.1317e+05   9.93e-27
  1.1782e+05   9.45e-27
  1.2265e+05   8.99e-27
  1.2769e+05   8.55e-27
  1.3293e+05   8.13e-27
  1.3839e+05   7.73e-27
  1.4407e+05   7.34e-27
  1.4998e+05   6.97e-27
  1.5614e+05   6.61e-27
  1.6255e+05   6.27e-27
  1.6922e+05   5.94e-27
  1.7617e+05   5.63e-27
  1.8340e+05   5.33e-27
  1.9093e+05   5.04e-27
  1.9877e+05   4.77e-27
  2.0693e+05   4.51e-27
  2.1543e+05   4.25e-27
  2.2427e+05   4.01e-27
  2.3348e+05   3.78e-27
  2.4306e+05   3.56e-27
  2.5304e+05   3.35e-27
  2.6343e+05   3.15e-27
  2.7424e+05   2.95e-27
  2.8550e+05   2.77e-27
  2.9722e+05   2.59e-27
  3.0942e+05   2.42e-27
  3.2213e+05   2.26e-27
  3.3535e+05   2.11e-27
  3.4912e+05   1.97e-27
  3.6345e+05   1.83e-27
  3.7837e+05   1.70e-27
  3.9390e+05   1.58e-27
  4.1008e+05   1.46e-27
  4.2691e+05   1.36e-27
  4.4444e+05   1.25e-27
  4.6268e+05   1.16e-27
  4.8168e+05   1.07e-27
  5.0145e+05   9.83e-28
  5.2204e+05   9.04e-28
  5.4347e+05   8.30e-28
  5.6578e+05   7.62e-28
  5.8901e+05   6.98e-28
  6.1319e+05   6.39e-28
  6.3836e+05   5.85e-28
  6.6457e+05   5.35e-28
  6.9185e+05   4.89e-28
  7.2025e+05   4.46e-28
  7.4982e+05   4.07e-28
  7.8061e+05   3.71e-28
  8.1265e+05   3.39e-28
  8.4601e+05   3.09e-28
  8.8075e+05   2.81e-28
  9.1690e+05   2.56e-28
  9.5455e+05   2.34e-28
  9.9373e+05   2.13e-28
  1.0345e+06   1.94e-28
  1.0770e+06   1.77e-28
  1.1212e+06   1.61e-28
  1.1672e+06   1.47e-28
  1.2152e+06   1.34e-28
  1.2650e+06   1.23e-28
  1.3170e+06   1.12e-28
  1.3711e+06   1.02e-28
  1.4273e+06   9.35e-29
  1.4859e+06   8.55e-29
  1.5469e+06   7.82e-29
  1.6104e+06   7.15e-29
  1.6766e+06   6.54e-29
  1.7454e+06   5.99e-29
  1.8170e+06   5.48e-29
  1.8916e+06   5.02e-29
  1.9693e+06   4.59e-29
  2.0501e+06   4.20e-29
  2.1343e+06   3.84e-29
  2.2219e+06   3.51e-29
  2.3131e+06   3.21e-29
  2.4081e+06   2.93e-29
  2.5070e+06   2.67e-29
  2.6099e+06   2.44e-29
  2.7170e+06   2.22e-29
  2.8286e+06   2.02e-29
  2.9447e+06   1.84e-29
  3.0656e+06   1.67e-29
  3.1914e+06   1.51e-29
  3.3225e+06   1.37e-29
  3.4589e+06   1.23e-29
  3.6008e+06   1.11e-29
  3.7487e+06   1.00e-29
  3.9026e+06   8.98e-30
  4.0628e+06   8.02e-30
  4.2296e+06   7.16e-30
  4.4032e+06   6.37e-30
  4.5840e+06   5.63e-30
  4.7722e+06   4.98e-30
  4.9681e+06   4.38e-30
  5.1720e+06   3.83e-30
  5.3844e+06   3.35e-30
  5.6054e+06   2.90e-30
  5.8355e+06   2.50e-30
  6.0751e+06   2.15e-30
  6.3245e+06   1.84e-30
  6.5841e+06   1.56e-30
  6.8544e+06   1.31e-30
  7.1358e+06   1.09e-30
  7.4288e+06   9.07e-31
  7.7338e+06   7.45e-31
  8.0513e+06   6.05e-31
  8.3818e+06   4.87e-31
  8.7259e+06   3.87e-31
  9.0841e+06   3.03e-31
  9.4571e+06   2.35e-31
  9.8453e+06   1.79e-31
  1.0249e+07   1.33e-31
  1.0670e+07   9.82e-32
  1.1108e+07   7.06e-32
  1.1564e+07   4.95e-32
  1.2039e+07   3.40e-32
  1.2533e+07   2.26e-32
  1.3048e+07   1.46e-32
  1.3584e+07   9.09e-33
  1.4141e+07   5.43e-33
  1.4722e+07   3.10e-33
  1.5326e+07   1.69e-33
  1.5955e+07   8.67e-34
  1.6610e+07   4.17e-34
  1.7292e+07   1.87e-34
  1.8002e+07   7.65e-35
  1.8741e+07   2.86e-35
  1.9511e+07   9.59e-36
  2.0312e+07   2.82e-36
  2.1145e+07   7.21e-37
  2.2013e+07   1.56e-37
  2.2917e+07   2.74e-38
  2.3858e+07   3.88e-39
  2.4837e+07   4.18e-40
  2.5857e+07   3.25e-41
  2.6919e+07   1.77e-42
  2.8024e+07   6.12e-44
  2.9174e+07   1.24e-45
  3.0372e+07   1.35e-47
  3.1619e+07   6.71e-50
  3.2917e+07   1.31e-52
  3.4268e+07   8.36e-56
  3.5675e+07   1.30e-59
  3.7140e+07   3.62e-64
  3.8664e+07   1.19e-69
  4.0252e+07   4.68e-72
  4.1904e+07   3.93e-72
  4.3624e+07   3.32e-72
  4.5415e+07   2.74e-72
  4.7280e+07   2.30e-72
  4.9221e+07   1.93e-72
  5.1241e+07   1.59e-72
  5.3345e+07   1.33e-72
  5.5535e+07   1.11e-72
  5.7815e+07   9.05e-73
  6.0188e+07   7.59e-73
  6.2659e+07   6.24e-73
  6.5232e+07   5.02e-73
  6.7910e+07   4.17e-73
  7.0698e+07   3.38e-73
  7.3600e+07   2.68e-73
  7.6621e+07   2.14e-73
  7.9767e+07   1.63e-73
  8.3042e+07   1.20e-73
  8.6451e+07   8.69e-74
  9.0000e+07   5.60e-74
