#  E [MeV]   Flux [# cm^{-2} s^{-1}  MeV^{-1}]
  3.0000e+04   1.07e-19
  3.0943e+04   1.03e-19
  3.1916e+04   9.97e-20
  3.2920e+04   9.64e-20
  3.3955e+04   9.31e-20
  3.5023e+04   8.99e-20
  3.6124e+04   8.68e-20
  3.7260e+04   8.39e-20
  3.8432e+04   8.10e-20
  3.9640e+04   7.81e-20
  4.0887e+04   7.54e-20
  4.2172e+04   7.28e-20
  4.3499e+04   7.02e-20
  4.4866e+04   6.77e-20
  4.6277e+04   6.53e-20
  4.7732e+04   6.29e-20
  4.9233e+04   6.07e-20
  5.0781e+04   5.84e-20
  5.2378e+04   5.63e-20
  5.4025e+04   5.42e-20
  5.5724e+04   5.22e-20
  5.7476e+04   5.03e-20
  5.9284e+04   4.84e-20
  6.1148e+04   4.66e-20
  6.3071e+04   4.48e-20
  6.5054e+04   4.31e-20
  6.7100e+04   4.15e-20
  6.9210e+04   3.98e-20
  7.1386e+04   3.83e-20
  7.3631e+04   3.68e-20
  7.5946e+04   3.53e-20
  7.8334e+04   3.39e-20
  8.0797e+04   3.26e-20
  8.3338e+04   3.13e-20
  8.5959e+04   3.00e-20
  8.8662e+04   2.88e-20
  9.1450e+04   2.76e-20
  9.4325e+04   2.64e-20
  9.7291e+04   2.53e-20
  1.0035e+05   2.43e-20
  1.0351e+05   2.32e-20
  1.0676e+05   2.22e-20
  1.1012e+05   2.13e-20
  1.1358e+05   2.03e-20
  1.1715e+05   1.95e-20
  1.2084e+05   1.86e-20
  1.2464e+05   1.78e-20
  1.2856e+05   1.70e-20
  1.3260e+05   1.62e-20
  1.3677e+05   1.55e-20
  1.4107e+05   1.48e-20
  1.4550e+05   1.41e-20
  1.5008e+05   1.34e-20
  1.5480e+05   1.28e-20
  1.5967e+05   1.22e-20
  1.6469e+05   1.16e-20
  1.6987e+05   1.10e-20
  1.7521e+05   1.05e-20
  1.8072e+05   9.98e-21
  1.8640e+05   9.48e-21
  1.9226e+05   9.00e-21
  1.9831e+05   8.55e-21
  2.0454e+05   8.11e-21
  2.1097e+05   7.69e-21
  2.1761e+05   7.29e-21
  2.2445e+05   6.91e-21
  2.3151e+05   6.55e-21
  2.3879e+05   6.19e-21
  2.4630e+05   5.86e-21
  2.5404e+05   5.54e-21
  2.6203e+05   5.24e-21
  2.7027e+05   4.95e-21
  2.7877e+05   4.67e-21
  2.8753e+05   4.40e-21
  2.9657e+05   4.15e-21
  3.0590e+05   3.91e-21
  3.1552e+05   3.68e-21
  3.2544e+05   3.46e-21
  3.3567e+05   3.26e-21
  3.4623e+05   3.06e-21
  3.5712e+05   2.87e-21
  3.6835e+05   2.69e-21
  3.7993e+05   2.52e-21
  3.9188e+05   2.36e-21
  4.0420e+05   2.21e-21
  4.1691e+05   2.07e-21
  4.3002e+05   1.93e-21
  4.4354e+05   1.81e-21
  4.5749e+05   1.69e-21
  4.7187e+05   1.57e-21
  4.8671e+05   1.47e-21
  5.0202e+05   1.37e-21
  5.1780e+05   1.27e-21
  5.3409e+05   1.18e-21
  5.5088e+05   1.10e-21
  5.6820e+05   1.02e-21
  5.8607e+05   9.47e-22
  6.0450e+05   8.78e-22
  6.2351e+05   8.14e-22
  6.4311e+05   7.54e-22
  6.6334e+05   6.98e-22
  6.8419e+05   6.46e-22
  7.0571e+05   5.98e-22
  7.2790e+05   5.52e-22
  7.5079e+05   5.09e-22
  7.7440e+05   4.71e-22
  7.9875e+05   4.34e-22
  8.2387e+05   4.00e-22
  8.4977e+05   3.69e-22
  8.7649e+05   3.40e-22
  9.0405e+05   3.13e-22
  9.3248e+05   2.88e-22
  9.6180e+05   2.65e-22
  9.9205e+05   2.44e-22
  1.0232e+06   2.25e-22
  1.0554e+06   2.06e-22
  1.0886e+06   1.90e-22
  1.1228e+06   1.74e-22
  1.1581e+06   1.60e-22
  1.1946e+06   1.47e-22
  1.2321e+06   1.35e-22
  1.2709e+06   1.24e-22
  1.3108e+06   1.13e-22
  1.3521e+06   1.04e-22
  1.3946e+06   9.53e-23
  1.4384e+06   8.73e-23
  1.4837e+06   7.98e-23
  1.5303e+06   7.30e-23
  1.5784e+06   6.69e-23
  1.6281e+06   6.11e-23
  1.6793e+06   5.57e-23
  1.7321e+06   5.10e-23
  1.7865e+06   4.65e-23
  1.8427e+06   4.24e-23
  1.9006e+06   3.86e-23
  1.9604e+06   3.53e-23
  2.0221e+06   3.21e-23
  2.0856e+06   2.92e-23
  2.1512e+06   2.65e-23
  2.2189e+06   2.41e-23
  2.2886e+06   2.19e-23
  2.3606e+06   1.98e-23
  2.4348e+06   1.80e-23
  2.5114e+06   1.63e-23
  2.5904e+06   1.47e-23
  2.6718e+06   1.32e-23
  2.7558e+06   1.20e-23
  2.8425e+06   1.08e-23
  2.9319e+06   9.70e-24
  3.0241e+06   8.70e-24
  3.1192e+06   7.83e-24
  3.2173e+06   7.01e-24
  3.3184e+06   6.24e-24
  3.4228e+06   5.58e-24
  3.5304e+06   4.99e-24
  3.6414e+06   4.43e-24
  3.7559e+06   3.91e-24
  3.8740e+06   3.48e-24
  3.9958e+06   3.09e-24
  4.1215e+06   2.72e-24
  4.2511e+06   2.39e-24
  4.3848e+06   2.11e-24
  4.5227e+06   1.86e-24
  4.6649e+06   1.62e-24
  4.8116e+06   1.41e-24
  4.9629e+06   1.24e-24
  5.1189e+06   1.07e-24
  5.2799e+06   9.23e-25
  5.4459e+06   8.00e-25
  5.6171e+06   6.92e-25
  5.7938e+06   5.93e-25
  5.9760e+06   5.01e-25
  6.1639e+06   4.32e-25
  6.3577e+06   3.68e-25
  6.5576e+06   3.10e-25
  6.7638e+06   2.60e-25
  6.9765e+06   2.21e-25
  7.1959e+06   1.85e-25
  7.4222e+06   1.53e-25
  7.6556e+06   1.27e-25
  7.8963e+06   1.06e-25
  8.1446e+06   8.77e-26
  8.4007e+06   7.09e-26
  8.6649e+06   5.85e-26
  8.9373e+06   4.78e-26
  9.2184e+06   3.84e-26
  9.5082e+06   3.04e-26
  9.8072e+06   2.46e-26
  1.0116e+07   1.96e-26
  1.0434e+07   1.53e-26
  1.0762e+07   1.19e-26
  1.1100e+07   9.29e-27
  1.1449e+07   7.10e-27
  1.1809e+07   5.26e-27
  1.2181e+07   3.91e-27
  1.2564e+07   2.88e-27
  1.2959e+07   2.03e-27
  1.3366e+07   1.36e-27
  1.3786e+07   9.51e-28
  1.4220e+07   6.34e-28
