#  E [GeV]   # per interaction  [GeV^{-1}]
  3.0000e+01   2.28e-02
  3.1033e+01   2.19e-02
  3.2102e+01   2.11e-02
  3.3207e+01   2.03e-02
  3.4350e+01   1.96e-02
  3.5533e+01   1.89e-02
  3.6757e+01   1.82e-02
  3.8022e+01   1.75e-02
  3.9332e+01   1.68e-02
  4.0686e+01   1.62e-02
  4.2087e+01   1.56e-02
  4.3536e+01   1.50e-02
  4.5035e+01   1.44e-02
  4.6586e+01   1.39e-02
  4.8190e+01   1.33e-02
  4.9850e+01   1.28e-02
  5.1566e+01   1.23e-02
  5.3342e+01   1.18e-02
  5.5178e+01   1.14e-02
  5.7078e+01   1.09e-02
  5.9044e+01   1.05e-02
  6.1077e+01   1.01e-02
  6.3180e+01   9.69e-03
  6.5356e+01   9.31e-03
  6.7606e+01   8.94e-03
  6.9934e+01   8.58e-03
  7.2342e+01   8.24e-03
  7.4833e+01   7.91e-03
  7.7410e+01   7.59e-03
  8.0075e+01   7.29e-03
  8.2833e+01   7.00e-03
  8.5685e+01   6.72e-03
  8.8635e+01   6.45e-03
  9.1687e+01   6.19e-03
  9.4844e+01   5.94e-03
  9.8110e+01   5.70e-03
  1.0149e+02   5.47e-03
  1.0498e+02   5.25e-03
  1.0860e+02   5.04e-03
  1.1234e+02   4.83e-03
  1.1621e+02   4.64e-03
  1.2021e+02   4.45e-03
  1.2435e+02   4.27e-03
  1.2863e+02   4.10e-03
  1.3306e+02   3.93e-03
  1.3764e+02   3.77e-03
  1.4238e+02   3.62e-03
  1.4728e+02   3.48e-03
  1.5235e+02   3.34e-03
  1.5760e+02   3.21e-03
  1.6302e+02   3.08e-03
  1.6864e+02   2.95e-03
  1.7445e+02   2.84e-03
  1.8045e+02   2.73e-03
  1.8667e+02   2.62e-03
  1.9309e+02   2.51e-03
  1.9974e+02   2.42e-03
  2.0662e+02   2.32e-03
  2.1373e+02   2.23e-03
  2.2109e+02   2.14e-03
  2.2871e+02   2.06e-03
  2.3658e+02   1.98e-03
  2.4473e+02   1.90e-03
  2.5316e+02   1.83e-03
  2.6187e+02   1.76e-03
  2.7089e+02   1.69e-03
  2.8022e+02   1.63e-03
  2.8987e+02   1.57e-03
  2.9985e+02   1.51e-03
  3.1017e+02   1.45e-03
  3.2085e+02   1.40e-03
  3.3190e+02   1.34e-03
  3.4333e+02   1.29e-03
  3.5515e+02   1.24e-03
  3.6738e+02   1.20e-03
  3.8003e+02   1.15e-03
  3.9312e+02   1.11e-03
  4.0665e+02   1.07e-03
  4.2066e+02   1.03e-03
  4.3514e+02   9.91e-04
  4.5013e+02   9.55e-04
  4.6562e+02   9.19e-04
  4.8166e+02   8.85e-04
  4.9824e+02   8.53e-04
  5.1540e+02   8.21e-04
  5.3315e+02   7.91e-04
  5.5150e+02   7.62e-04
  5.7050e+02   7.34e-04
  5.9014e+02   7.07e-04
  6.1046e+02   6.81e-04
  6.3148e+02   6.57e-04
  6.5322e+02   6.33e-04
  6.7572e+02   6.10e-04
  6.9898e+02   5.88e-04
  7.2305e+02   5.67e-04
  7.4795e+02   5.46e-04
  7.7371e+02   5.26e-04
  8.0035e+02   5.08e-04
  8.2791e+02   4.89e-04
  8.5641e+02   4.72e-04
  8.8590e+02   4.55e-04
  9.1641e+02   4.39e-04
  9.4796e+02   4.24e-04
  9.8061e+02   4.09e-04
  1.0144e+03   3.95e-04
  1.0493e+03   3.82e-04
  1.0854e+03   3.69e-04
  1.1228e+03   3.56e-04
  1.1615e+03   3.44e-04
  1.2015e+03   3.32e-04
  1.2428e+03   3.21e-04
  1.2856e+03   3.11e-04
  1.3299e+03   3.00e-04
  1.3757e+03   2.90e-04
  1.4231e+03   2.81e-04
  1.4721e+03   2.71e-04
  1.5228e+03   2.63e-04
  1.5752e+03   2.54e-04
  1.6294e+03   2.46e-04
  1.6855e+03   2.37e-04
  1.7436e+03   2.30e-04
  1.8036e+03   2.22e-04
  1.8657e+03   2.15e-04
  1.9300e+03   2.07e-04
  1.9964e+03   2.00e-04
  2.0652e+03   1.94e-04
  2.1363e+03   1.87e-04
  2.2098e+03   1.81e-04
  2.2859e+03   1.74e-04
  2.3646e+03   1.68e-04
  2.4461e+03   1.62e-04
  2.5303e+03   1.56e-04
  2.6174e+03   1.51e-04
  2.7075e+03   1.45e-04
  2.8008e+03   1.40e-04
  2.8972e+03   1.34e-04
  2.9970e+03   1.29e-04
  3.1002e+03   1.24e-04
  3.2069e+03   1.19e-04
  3.3173e+03   1.14e-04
  3.4316e+03   1.09e-04
  3.5497e+03   1.04e-04
  3.6720e+03   9.96e-05
  3.7984e+03   9.51e-05
  3.9292e+03   9.06e-05
  4.0645e+03   8.62e-05
  4.2044e+03   8.19e-05
  4.3492e+03   7.77e-05
  4.4990e+03   7.36e-05
  4.6539e+03   6.96e-05
  4.8141e+03   6.58e-05
  4.9799e+03   6.19e-05
  5.1514e+03   5.82e-05
  5.3288e+03   5.46e-05
  5.5123e+03   5.11e-05
  5.7021e+03   4.76e-05
  5.8984e+03   4.44e-05
  6.1015e+03   4.13e-05
  6.3116e+03   3.82e-05
  6.5289e+03   3.53e-05
  6.7538e+03   3.25e-05
  6.9863e+03   2.98e-05
  7.2269e+03   2.73e-05
  7.4757e+03   2.49e-05
  7.7331e+03   2.26e-05
  7.9994e+03   2.04e-05
  8.2749e+03   1.84e-05
  8.5598e+03   1.65e-05
  8.8546e+03   1.47e-05
  9.1594e+03   1.31e-05
  9.4748e+03   1.15e-05
  9.8011e+03   1.01e-05
  1.0139e+04   8.79e-06
  1.0488e+04   7.59e-06
  1.0849e+04   6.51e-06
  1.1222e+04   5.54e-06
  1.1609e+04   4.67e-06
  1.2009e+04   3.90e-06
  1.2422e+04   3.23e-06
  1.2850e+04   2.64e-06
  1.3292e+04   2.13e-06
  1.3750e+04   1.71e-06
  1.4223e+04   1.35e-06
  1.4713e+04   1.05e-06
  1.5220e+04   7.98e-07
  1.5744e+04   6.01e-07
  1.6286e+04   4.43e-07
  1.6847e+04   3.18e-07
  1.7427e+04   2.24e-07
  1.8027e+04   1.55e-07
  1.8648e+04   1.03e-07
  1.9290e+04   6.63e-08
  1.9954e+04   4.20e-08
  2.0641e+04   2.54e-08
  2.1352e+04   1.46e-08
  2.2087e+04   8.21e-09
  2.2848e+04   4.38e-09
  2.3634e+04   2.17e-09
  2.4448e+04   1.02e-09
  2.5290e+04   4.57e-10
