#  E [MeV]   Flux [# cm^{-2} s^{-1}  MeV^{-1}]
  3.0000e+04   2.12e-25
  3.1232e+04   2.04e-25
  3.2514e+04   1.96e-25
  3.3849e+04   1.88e-25
  3.5238e+04   1.81e-25
  3.6685e+04   1.74e-25
  3.8191e+04   1.67e-25
  3.9759e+04   1.61e-25
  4.1391e+04   1.54e-25
  4.3090e+04   1.48e-25
  4.4859e+04   1.42e-25
  4.6701e+04   1.36e-25
  4.8618e+04   1.31e-25
  5.0614e+04   1.26e-25
  5.2692e+04   1.20e-25
  5.4855e+04   1.16e-25
  5.7107e+04   1.11e-25
  5.9451e+04   1.06e-25
  6.1892e+04   1.02e-25
  6.4433e+04   9.76e-26
  6.7078e+04   9.35e-26
  6.9832e+04   8.96e-26
  7.2699e+04   8.58e-26
  7.5683e+04   8.21e-26
  7.8790e+04   7.86e-26
  8.2025e+04   7.52e-26
  8.5392e+04   7.20e-26
  8.8898e+04   6.89e-26
  9.2547e+04   6.59e-26
  9.6347e+04   6.30e-26
  1.0030e+05   6.02e-26
  1.0442e+05   5.75e-26
  1.0871e+05   5.50e-26
  1.1317e+05   5.25e-26
  1.1782e+05   5.02e-26
  1.2265e+05   4.79e-26
  1.2769e+05   4.57e-26
  1.3293e+05   4.37e-26
  1.3839e+05   4.17e-26
  1.4407e+05   3.97e-26
  1.4998e+05   3.79e-26
  1.5614e+05   3.61e-26
  1.6255e+05   3.45e-26
  1.6922e+05   3.28e-26
  1.7617e+05   3.13e-26
  1.8340e+05   2.98e-26
  1.9093e+05   2.84e-26
  1.9877e+05   2.71e-26
  2.0693e+05   2.58e-26
  2.1543e+05   2.45e-26
  2.2427e+05   2.33e-26
  2.3348e+05   2.22e-26
  2.4306e+05   2.11e-26
  2.5304e+05   2.01e-26
  2.6343e+05   1.91e-26
  2.7424e+05   1.82e-26
  2.8550e+05   1.73e-26
  2.9722e+05   1.64e-26
  3.0942e+05   1.56e-26
  3.2213e+05   1.48e-26
  3.3535e+05   1.41e-26
  3.4912e+05   1.34e-26
  3.6345e+05   1.27e-26
  3.7837e+05   1.21e-26
  3.9390e+05   1.15e-26
  4.1008e+05   1.09e-26
  4.2691e+05   1.04e-26
  4.4444e+05   9.85e-27
  4.6268e+05   9.36e-27
  4.8168e+05   8.89e-27
  5.0145e+05   8.44e-27
  5.2204e+05   8.02e-27
  5.4347e+05   7.62e-27
  5.6578e+05   7.24e-27
  5.8901e+05   6.88e-27
  6.1319e+05   6.54e-27
  6.3836e+05   6.21e-27
  6.6457e+05   5.91e-27
  6.9185e+05   5.62e-27
  7.2025e+05   5.35e-27
  7.4982e+05   5.09e-27
  7.8061e+05   4.84e-27
  8.1265e+05   4.61e-27
  8.4601e+05   4.40e-27
  8.8075e+05   4.19e-27
  9.1690e+05   4.00e-27
  9.5455e+05   3.81e-27
  9.9373e+05   3.64e-27
  1.0345e+06   3.48e-27
  1.0770e+06   3.32e-27
  1.1212e+06   3.17e-27
  1.1672e+06   3.03e-27
  1.2152e+06   2.90e-27
  1.2650e+06   2.78e-27
  1.3170e+06   2.66e-27
  1.3711e+06   2.55e-27
  1.4273e+06   2.45e-27
  1.4859e+06   2.35e-27
  1.5469e+06   2.26e-27
  1.6104e+06   2.17e-27
  1.6766e+06   2.08e-27
  1.7454e+06   2.00e-27
  1.8170e+06   1.93e-27
  1.8916e+06   1.86e-27
  1.9693e+06   1.79e-27
  2.0501e+06   1.72e-27
  2.1343e+06   1.66e-27
  2.2219e+06   1.60e-27
  2.3131e+06   1.55e-27
  2.4081e+06   1.49e-27
  2.5070e+06   1.44e-27
  2.6099e+06   1.39e-27
  2.7170e+06   1.35e-27
  2.8286e+06   1.30e-27
  2.9447e+06   1.26e-27
  3.0656e+06   1.22e-27
  3.1914e+06   1.18e-27
  3.3225e+06   1.14e-27
  3.4589e+06   1.10e-27
  3.6008e+06   1.07e-27
  3.7487e+06   1.03e-27
  3.9026e+06   1.00e-27
  4.0628e+06   9.69e-28
  4.2296e+06   9.38e-28
  4.4032e+06   9.07e-28
  4.5840e+06   8.78e-28
  4.7722e+06   8.49e-28
  4.9681e+06   8.22e-28
  5.1720e+06   7.95e-28
  5.3844e+06   7.68e-28
  5.6054e+06   7.42e-28
  5.8355e+06   7.17e-28
  6.0751e+06   6.92e-28
  6.3245e+06   6.68e-28
  6.5841e+06   6.44e-28
  6.8544e+06   6.21e-28
  7.1358e+06   5.98e-28
  7.4288e+06   5.75e-28
  7.7338e+06   5.53e-28
  8.0513e+06   5.32e-28
  8.3818e+06   5.10e-28
  8.7259e+06   4.90e-28
  9.0841e+06   4.69e-28
  9.4571e+06   4.48e-28
  9.8453e+06   4.28e-28
  1.0249e+07   4.08e-28
  1.0670e+07   3.89e-28
  1.1108e+07   3.70e-28
  1.1564e+07   3.51e-28
  1.2039e+07   3.32e-28
  1.2533e+07   3.14e-28
  1.3048e+07   2.96e-28
  1.3584e+07   2.79e-28
  1.4141e+07   2.62e-28
  1.4722e+07   2.44e-28
  1.5326e+07   2.28e-28
  1.5955e+07   2.12e-28
  1.6610e+07   1.96e-28
  1.7292e+07   1.80e-28
  1.8002e+07   1.65e-28
  1.8741e+07   1.50e-28
  1.9511e+07   1.36e-28
  2.0312e+07   1.22e-28
  2.1145e+07   1.09e-28
  2.2013e+07   9.60e-29
  2.2917e+07   8.38e-29
  2.3858e+07   7.22e-29
  2.4837e+07   6.14e-29
  2.5857e+07   5.13e-29
  2.6919e+07   4.20e-29
  2.8024e+07   3.37e-29
  2.9174e+07   2.62e-29
  3.0372e+07   1.97e-29
  3.1619e+07   1.43e-29
  3.2917e+07   9.82e-30
  3.4268e+07   6.38e-30
  3.5675e+07   3.84e-30
  3.7140e+07   2.11e-30
  3.8664e+07   1.03e-30
  4.0252e+07   4.36e-31
  4.1904e+07   1.53e-31
  4.3624e+07   4.24e-32
  4.5415e+07   8.61e-33
  4.7280e+07   1.17e-33
  4.9221e+07   9.19e-35
  5.1241e+07   3.54e-36
  5.3345e+07   5.13e-38
  5.5535e+07   1.95e-40
  5.7815e+07   1.17e-43
  6.0188e+07   5.21e-48
  6.2659e+07   5.71e-54
  6.5232e+07   3.07e-62
  6.7910e+07   1.04e-69
  7.0698e+07   8.80e-70
  7.3600e+07   7.62e-70
  7.6621e+07   6.53e-70
  7.9767e+07   5.56e-70
  8.3042e+07   4.88e-70
  8.6451e+07   4.24e-70
  9.0000e+07   3.73e-70
