#  E [GeV]   # per interaction  [GeV^{-1}]
  3.0000e+01   1.18e+00
  3.1141e+01   1.12e+00
  3.2326e+01   1.07e+00
  3.3556e+01   1.03e+00
  3.4832e+01   9.82e-01
  3.6157e+01   9.38e-01
  3.7533e+01   8.97e-01
  3.8961e+01   8.57e-01
  4.0443e+01   8.18e-01
  4.1982e+01   7.81e-01
  4.3579e+01   7.46e-01
  4.5237e+01   7.12e-01
  4.6958e+01   6.80e-01
  4.8744e+01   6.49e-01
  5.0598e+01   6.19e-01
  5.2523e+01   5.90e-01
  5.4521e+01   5.63e-01
  5.6596e+01   5.37e-01
  5.8749e+01   5.12e-01
  6.0984e+01   4.88e-01
  6.3304e+01   4.65e-01
  6.5712e+01   4.44e-01
  6.8212e+01   4.23e-01
  7.0807e+01   4.03e-01
  7.3500e+01   3.84e-01
  7.6297e+01   3.65e-01
  7.9199e+01   3.48e-01
  8.2212e+01   3.31e-01
  8.5340e+01   3.15e-01
  8.8586e+01   3.00e-01
  9.1956e+01   2.85e-01
  9.5455e+01   2.71e-01
  9.9086e+01   2.58e-01
  1.0286e+02   2.45e-01
  1.0677e+02   2.33e-01
  1.1083e+02   2.22e-01
  1.1505e+02   2.11e-01
  1.1942e+02   2.00e-01
  1.2397e+02   1.90e-01
  1.2868e+02   1.81e-01
  1.3358e+02   1.71e-01
  1.3866e+02   1.63e-01
  1.4394e+02   1.54e-01
  1.4941e+02   1.47e-01
  1.5509e+02   1.39e-01
  1.6100e+02   1.32e-01
  1.6712e+02   1.25e-01
  1.7348e+02   1.18e-01
  1.8008e+02   1.12e-01
  1.8693e+02   1.06e-01
  1.9404e+02   1.00e-01
  2.0142e+02   9.50e-02
  2.0908e+02   8.99e-02
  2.1704e+02   8.50e-02
  2.2529e+02   8.03e-02
  2.3387e+02   7.59e-02
  2.4276e+02   7.17e-02
  2.5200e+02   6.76e-02
  2.6158e+02   6.38e-02
  2.7154e+02   6.02e-02
  2.8187e+02   5.67e-02
  2.9259e+02   5.35e-02
  3.0372e+02   5.04e-02
  3.1527e+02   4.74e-02
  3.2727e+02   4.46e-02
  3.3972e+02   4.19e-02
  3.5264e+02   3.94e-02
  3.6606e+02   3.70e-02
  3.7998e+02   3.47e-02
  3.9444e+02   3.25e-02
  4.0945e+02   3.05e-02
  4.2502e+02   2.85e-02
  4.4119e+02   2.67e-02
  4.5798e+02   2.50e-02
  4.7540e+02   2.34e-02
  4.9348e+02   2.18e-02
  5.1226e+02   2.04e-02
  5.3175e+02   1.90e-02
  5.5198e+02   1.77e-02
  5.7297e+02   1.65e-02
  5.9477e+02   1.54e-02
  6.1740e+02   1.44e-02
  6.4089e+02   1.34e-02
  6.6527e+02   1.24e-02
  6.9058e+02   1.15e-02
  7.1685e+02   1.07e-02
  7.4412e+02   9.97e-03
  7.7243e+02   9.25e-03
  8.0181e+02   8.59e-03
  8.3232e+02   7.97e-03
  8.6398e+02   7.38e-03
  8.9685e+02   6.84e-03
  9.3097e+02   6.34e-03
  9.6638e+02   5.86e-03
  1.0031e+03   5.43e-03
  1.0413e+03   5.02e-03
  1.0809e+03   4.64e-03
  1.1220e+03   4.29e-03
  1.1647e+03   3.96e-03
  1.2090e+03   3.65e-03
  1.2550e+03   3.37e-03
  1.3028e+03   3.11e-03
  1.3523e+03   2.86e-03
  1.4038e+03   2.64e-03
  1.4572e+03   2.43e-03
  1.5126e+03   2.23e-03
  1.5702e+03   2.05e-03
  1.6299e+03   1.89e-03
  1.6919e+03   1.73e-03
  1.7563e+03   1.59e-03
  1.8231e+03   1.46e-03
  1.8925e+03   1.33e-03
  1.9645e+03   1.22e-03
  2.0392e+03   1.12e-03
  2.1168e+03   1.02e-03
  2.1973e+03   9.33e-04
  2.2809e+03   8.53e-04
  2.3677e+03   7.78e-04
  2.4577e+03   7.08e-04
  2.5512e+03   6.45e-04
  2.6483e+03   5.86e-04
  2.7490e+03   5.31e-04
  2.8536e+03   4.83e-04
  2.9622e+03   4.37e-04
  3.0749e+03   3.95e-04
  3.1918e+03   3.57e-04
  3.3133e+03   3.23e-04
  3.4393e+03   2.90e-04
  3.5702e+03   2.62e-04
  3.7060e+03   2.36e-04
  3.8470e+03   2.11e-04
  3.9933e+03   1.89e-04
  4.1452e+03   1.70e-04
  4.3029e+03   1.51e-04
  4.4666e+03   1.35e-04
  4.6366e+03   1.21e-04
  4.8129e+03   1.07e-04
  4.9960e+03   9.51e-05
  5.1861e+03   8.44e-05
  5.3834e+03   7.45e-05
  5.5882e+03   6.57e-05
  5.8008e+03   5.80e-05
  6.0215e+03   5.09e-05
  6.2506e+03   4.45e-05
  6.4883e+03   3.91e-05
  6.7352e+03   3.41e-05
  6.9914e+03   2.96e-05
  7.2574e+03   2.59e-05
  7.5335e+03   2.24e-05
  7.8201e+03   1.93e-05
  8.1176e+03   1.67e-05
  8.4264e+03   1.44e-05
  8.7470e+03   1.22e-05
  9.0797e+03   1.05e-05
  9.4251e+03   8.98e-06
  9.7837e+03   7.57e-06
  1.0156e+04   6.45e-06
  1.0542e+04   5.44e-06
  1.0943e+04   4.52e-06
  1.1360e+04   3.81e-06
  1.1792e+04   3.17e-06
  1.2240e+04   2.60e-06
  1.2706e+04   2.16e-06
  1.3189e+04   1.77e-06
  1.3691e+04   1.43e-06
  1.4212e+04   1.16e-06
  1.4753e+04   9.38e-07
  1.5314e+04   7.42e-07
  1.5897e+04   5.88e-07
  1.6501e+04   4.62e-07
  1.7129e+04   3.54e-07
  1.7781e+04   2.71e-07
  1.8457e+04   2.05e-07
  1.9159e+04   1.51e-07
  1.9888e+04   1.09e-07
  2.0645e+04   7.82e-08
  2.1430e+04   5.40e-08
  2.2245e+04   3.63e-08
  2.3092e+04   2.38e-08
  2.3970e+04   1.48e-08
  2.4882e+04   8.83e-09
  2.5829e+04   4.99e-09
  2.6811e+04   2.62e-09
  2.7831e+04   1.27e-09
  2.8890e+04   5.58e-10
  2.9989e+04   2.18e-10
  3.1130e+04   7.35e-11
  3.2314e+04   2.11e-11
  3.3544e+04   4.89e-12
  3.4820e+04   8.76e-13
  3.6144e+04   1.15e-13
  3.7519e+04   1.02e-14
  3.8947e+04   5.58e-16
  4.0428e+04   1.65e-17
  4.1966e+04   2.26e-19
  4.3563e+04   1.16e-21
  4.5220e+04   1.70e-24
  4.6941e+04   4.94e-28
  4.8726e+04   1.74e-32
  5.0580e+04   3.91e-38
