#  E [MeV]   Flux [# cm^{-2} s^{-1}  MeV^{-1}]
  3.0000e+04   7.43e-20
  3.0854e+04   7.15e-20
  3.1733e+04   6.88e-20
  3.2636e+04   6.61e-20
  3.3566e+04   6.36e-20
  3.4521e+04   6.11e-20
  3.5504e+04   5.88e-20
  3.6515e+04   5.65e-20
  3.7555e+04   5.43e-20
  3.8625e+04   5.21e-20
  3.9724e+04   5.01e-20
  4.0855e+04   4.81e-20
  4.2019e+04   4.62e-20
  4.3215e+04   4.43e-20
  4.4446e+04   4.25e-20
  4.5711e+04   4.08e-20
  4.7013e+04   3.92e-20
  4.8352e+04   3.75e-20
  4.9728e+04   3.60e-20
  5.1144e+04   3.45e-20
  5.2601e+04   3.31e-20
  5.4099e+04   3.17e-20
  5.5639e+04   3.03e-20
  5.7223e+04   2.90e-20
  5.8853e+04   2.78e-20
  6.0528e+04   2.66e-20
  6.2252e+04   2.54e-20
  6.4025e+04   2.43e-20
  6.5848e+04   2.33e-20
  6.7723e+04   2.22e-20
  6.9651e+04   2.12e-20
  7.1634e+04   2.03e-20
  7.3674e+04   1.94e-20
  7.5772e+04   1.85e-20
  7.7929e+04   1.77e-20
  8.0148e+04   1.69e-20
  8.2431e+04   1.61e-20
  8.4778e+04   1.53e-20
  8.7192e+04   1.46e-20
  8.9674e+04   1.39e-20
  9.2228e+04   1.33e-20
  9.4854e+04   1.27e-20
  9.7555e+04   1.20e-20
  1.0033e+05   1.15e-20
  1.0319e+05   1.09e-20
  1.0613e+05   1.04e-20
  1.0915e+05   9.88e-21
  1.1226e+05   9.39e-21
  1.1545e+05   8.92e-21
  1.1874e+05   8.48e-21
  1.2212e+05   8.05e-21
  1.2560e+05   7.65e-21
  1.2918e+05   7.25e-21
  1.3286e+05   6.88e-21
  1.3664e+05   6.53e-21
  1.4053e+05   6.19e-21
  1.4453e+05   5.86e-21
  1.4865e+05   5.55e-21
  1.5288e+05   5.25e-21
  1.5723e+05   4.97e-21
  1.6171e+05   4.70e-21
  1.6631e+05   4.44e-21
  1.7105e+05   4.19e-21
  1.7592e+05   3.96e-21
  1.8093e+05   3.73e-21
  1.8608e+05   3.52e-21
  1.9138e+05   3.31e-21
  1.9683e+05   3.12e-21
  2.0243e+05   2.93e-21
  2.0820e+05   2.75e-21
  2.1413e+05   2.59e-21
  2.2022e+05   2.43e-21
  2.2649e+05   2.28e-21
  2.3294e+05   2.13e-21
  2.3958e+05   2.00e-21
  2.4640e+05   1.87e-21
  2.5341e+05   1.75e-21
  2.6063e+05   1.63e-21
  2.6805e+05   1.53e-21
  2.7568e+05   1.42e-21
  2.8353e+05   1.32e-21
  2.9161e+05   1.23e-21
  2.9991e+05   1.15e-21
  3.0845e+05   1.07e-21
  3.1723e+05   9.89e-22
  3.2627e+05   9.17e-22
  3.3556e+05   8.50e-22
  3.4511e+05   7.87e-22
  3.5494e+05   7.28e-22
  3.6504e+05   6.71e-22
  3.7544e+05   6.20e-22
  3.8613e+05   5.72e-22
  3.9712e+05   5.26e-22
  4.0843e+05   4.82e-22
  4.2006e+05   4.44e-22
  4.3202e+05   4.07e-22
  4.4432e+05   3.73e-22
  4.5698e+05   3.41e-22
  4.6999e+05   3.12e-22
  4.8337e+05   2.85e-22
  4.9713e+05   2.60e-22
  5.1129e+05   2.37e-22
  5.2585e+05   2.16e-22
  5.4082e+05   1.97e-22
  5.5622e+05   1.79e-22
  5.7206e+05   1.62e-22
  5.8835e+05   1.47e-22
  6.0510e+05   1.33e-22
  6.2233e+05   1.21e-22
  6.4005e+05   1.09e-22
  6.5828e+05   9.85e-23
  6.7702e+05   8.92e-23
  6.9630e+05   8.05e-23
  7.1613e+05   7.24e-23
  7.3652e+05   6.52e-23
  7.5749e+05   5.88e-23
  7.7906e+05   5.29e-23
  8.0124e+05   4.74e-23
  8.2406e+05   4.25e-23
  8.4752e+05   3.83e-23
  8.7165e+05   3.44e-23
  8.9647e+05   3.07e-23
  9.2200e+05   2.75e-23
  9.4825e+05   2.47e-23
  9.7526e+05   2.21e-23
  1.0030e+06   1.98e-23
  1.0316e+06   1.76e-23
  1.0610e+06   1.58e-23
  1.0912e+06   1.42e-23
  1.1222e+06   1.26e-23
  1.1542e+06   1.12e-23
  1.1871e+06   1.01e-23
  1.2209e+06   9.01e-24
  1.2556e+06   8.03e-24
  1.2914e+06   7.12e-24
  1.3281e+06   6.38e-24
  1.3660e+06   5.71e-24
  1.4049e+06   5.08e-24
  1.4449e+06   4.50e-24
  1.4860e+06   4.03e-24
  1.5283e+06   3.60e-24
  1.5718e+06   3.20e-24
  1.6166e+06   2.83e-24
  1.6626e+06   2.52e-24
  1.7100e+06   2.26e-24
  1.7587e+06   2.01e-24
  1.8087e+06   1.77e-24
  1.8602e+06   1.58e-24
  1.9132e+06   1.41e-24
  1.9677e+06   1.25e-24
  2.0237e+06   1.11e-24
  2.0813e+06   9.85e-25
  2.1406e+06   8.82e-25
  2.2016e+06   7.84e-25
  2.2642e+06   6.93e-25
  2.3287e+06   6.15e-25
  2.3950e+06   5.51e-25
  2.4632e+06   4.90e-25
  2.5334e+06   4.34e-25
  2.6055e+06   3.85e-25
  2.6797e+06   3.45e-25
  2.7560e+06   3.08e-25
  2.8345e+06   2.73e-25
  2.9152e+06   2.42e-25
  2.9982e+06   2.18e-25
  3.0836e+06   1.95e-25
  3.1714e+06   1.74e-25
  3.2617e+06   1.55e-25
  3.3545e+06   1.40e-25
  3.4501e+06   1.26e-25
  3.5483e+06   1.13e-25
  3.6493e+06   1.01e-25
  3.7532e+06   9.18e-26
  3.8601e+06   8.30e-26
  3.9700e+06   7.48e-26
  4.0831e+06   6.70e-26
  4.1993e+06   6.09e-26
  4.3189e+06   5.51e-26
  4.4419e+06   4.98e-26
  4.5684e+06   4.47e-26
  4.6985e+06   4.06e-26
  4.8322e+06   3.68e-26
  4.9698e+06   3.32e-26
  5.1114e+06   2.99e-26
  5.2569e+06   2.70e-26
  5.4066e+06   2.44e-26
  5.5605e+06   2.19e-26
  5.7189e+06   1.96e-26
  5.8817e+06   1.75e-26
  6.0492e+06   1.57e-26
  6.2214e+06   1.39e-26
  6.3986e+06   1.23e-26
  6.5808e+06   1.09e-26
  6.7682e+06   9.51e-27
  6.9609e+06   8.28e-27
  7.1591e+06   7.16e-27
  7.3630e+06   6.21e-27
  7.5726e+06   5.43e-27
  7.7882e+06   4.72e-27
  8.0100e+06   4.07e-27
