#  E [MeV]   Flux [# cm^{-2} s^{-1}  MeV^{-1}]
  3.0000e+04   9.82e-26
  3.1232e+04   9.37e-26
  3.2514e+04   8.93e-26
  3.3849e+04   8.52e-26
  3.5238e+04   8.12e-26
  3.6685e+04   7.74e-26
  3.8191e+04   7.37e-26
  3.9759e+04   7.02e-26
  4.1391e+04   6.69e-26
  4.3090e+04   6.37e-26
  4.4859e+04   6.07e-26
  4.6701e+04   5.77e-26
  4.8618e+04   5.50e-26
  5.0614e+04   5.23e-26
  5.2692e+04   4.97e-26
  5.4855e+04   4.73e-26
  5.7107e+04   4.50e-26
  5.9451e+04   4.28e-26
  6.1892e+04   4.07e-26
  6.4433e+04   3.86e-26
  6.7078e+04   3.67e-26
  6.9832e+04   3.49e-26
  7.2699e+04   3.31e-26
  7.5683e+04   3.14e-26
  7.8790e+04   2.98e-26
  8.2025e+04   2.83e-26
  8.5392e+04   2.69e-26
  8.8898e+04   2.55e-26
  9.2547e+04   2.41e-26
  9.6347e+04   2.29e-26
  1.0030e+05   2.17e-26
  1.0442e+05   2.05e-26
  1.0871e+05   1.94e-26
  1.1317e+05   1.84e-26
  1.1782e+05   1.74e-26
  1.2265e+05   1.65e-26
  1.2769e+05   1.56e-26
  1.3293e+05   1.47e-26
  1.3839e+05   1.39e-26
  1.4407e+05   1.31e-26
  1.4998e+05   1.24e-26
  1.5614e+05   1.17e-26
  1.6255e+05   1.10e-26
  1.6922e+05   1.04e-26
  1.7617e+05   9.78e-27
  1.8340e+05   9.20e-27
  1.9093e+05   8.65e-27
  1.9877e+05   8.13e-27
  2.0693e+05   7.63e-27
  2.1543e+05   7.16e-27
  2.2427e+05   6.71e-27
  2.3348e+05   6.28e-27
  2.4306e+05   5.88e-27
  2.5304e+05   5.50e-27
  2.6343e+05   5.13e-27
  2.7424e+05   4.79e-27
  2.8550e+05   4.46e-27
  2.9722e+05   4.15e-27
  3.0942e+05   3.86e-27
  3.2213e+05   3.58e-27
  3.3535e+05   3.32e-27
  3.4912e+05   3.08e-27
  3.6345e+05   2.85e-27
  3.7837e+05   2.63e-27
  3.9390e+05   2.43e-27
  4.1008e+05   2.24e-27
  4.2691e+05   2.06e-27
  4.4444e+05   1.89e-27
  4.6268e+05   1.74e-27
  4.8168e+05   1.59e-27
  5.0145e+05   1.46e-27
  5.2204e+05   1.33e-27
  5.4347e+05   1.22e-27
  5.6578e+05   1.11e-27
  5.8901e+05   1.01e-27
  6.1319e+05   9.22e-28
  6.3836e+05   8.39e-28
  6.6457e+05   7.62e-28
  6.9185e+05   6.92e-28
  7.2025e+05   6.28e-28
  7.4982e+05   5.70e-28
  7.8061e+05   5.17e-28
  8.1265e+05   4.68e-28
  8.4601e+05   4.24e-28
  8.8075e+05   3.84e-28
  9.1690e+05   3.48e-28
  9.5455e+05   3.15e-28
  9.9373e+05   2.86e-28
  1.0345e+06   2.59e-28
  1.0770e+06   2.34e-28
  1.1212e+06   2.12e-28
  1.1672e+06   1.93e-28
  1.2152e+06   1.75e-28
  1.2650e+06   1.58e-28
  1.3170e+06   1.44e-28
  1.3711e+06   1.31e-28
  1.4273e+06   1.18e-28
  1.4859e+06   1.08e-28
  1.5469e+06   9.78e-29
  1.6104e+06   8.88e-29
  1.6766e+06   8.07e-29
  1.7454e+06   7.34e-29
  1.8170e+06   6.66e-29
  1.8916e+06   6.06e-29
  1.9693e+06   5.50e-29
  2.0501e+06   4.99e-29
  2.1343e+06   4.53e-29
  2.2219e+06   4.11e-29
  2.3131e+06   3.72e-29
  2.4081e+06   3.37e-29
  2.5070e+06   3.05e-29
  2.6099e+06   2.76e-29
  2.7170e+06   2.49e-29
  2.8286e+06   2.24e-29
  2.9447e+06   2.02e-29
  3.0656e+06   1.81e-29
  3.1914e+06   1.63e-29
  3.3225e+06   1.46e-29
  3.4589e+06   1.30e-29
  3.6008e+06   1.16e-29
  3.7487e+06   1.03e-29
  3.9026e+06   9.13e-30
  4.0628e+06   8.05e-30
  4.2296e+06   7.10e-30
  4.4032e+06   6.23e-30
  4.5840e+06   5.43e-30
  4.7722e+06   4.74e-30
  4.9681e+06   4.10e-30
  5.1720e+06   3.53e-30
  5.3844e+06   3.04e-30
  5.6054e+06   2.60e-30
  5.8355e+06   2.20e-30
  6.0751e+06   1.86e-30
  6.3245e+06   1.56e-30
  6.5841e+06   1.30e-30
  6.8544e+06   1.08e-30
  7.1358e+06   8.83e-31
  7.4288e+06   7.18e-31
  7.7338e+06   5.80e-31
  8.0513e+06   4.61e-31
  8.3818e+06   3.64e-31
  8.7259e+06   2.84e-31
  9.0841e+06   2.17e-31
  9.4571e+06   1.65e-31
  9.8453e+06   1.23e-31
  1.0249e+07   8.99e-32
  1.0670e+07   6.50e-32
  1.1108e+07   4.58e-32
  1.1564e+07   3.13e-32
  1.2039e+07   2.11e-32
  1.2533e+07   1.38e-32
  1.3048e+07   8.67e-33
  1.3584e+07   5.32e-33
  1.4141e+07   3.11e-33
  1.4722e+07   1.74e-33
  1.5326e+07   9.34e-34
  1.5955e+07   4.69e-34
  1.6610e+07   2.21e-34
  1.7292e+07   9.78e-35
  1.8002e+07   3.94e-35
  1.8741e+07   1.45e-35
  1.9511e+07   4.82e-36
  2.0312e+07   1.40e-36
  2.1145e+07   3.56e-37
  2.2013e+07   7.64e-38
  2.2917e+07   1.34e-38
  2.3858e+07   1.89e-39
  2.4837e+07   2.05e-40
  2.5857e+07   1.60e-41
  2.6919e+07   8.78e-43
  2.8024e+07   3.08e-44
  2.9174e+07   6.32e-46
  3.0372e+07   7.01e-48
  3.1619e+07   3.59e-50
  3.2917e+07   7.24e-53
  3.4268e+07   4.78e-56
  3.5675e+07   7.79e-60
  3.7140e+07   2.28e-64
  3.8664e+07   7.92e-70
  4.0252e+07   3.32e-72
  4.1904e+07   2.98e-72
  4.3624e+07   2.69e-72
  4.5415e+07   2.42e-72
  4.7280e+07   2.20e-72
  4.9221e+07   1.99e-72
  5.1241e+07   1.81e-72
  5.3345e+07   1.65e-72
  5.5535e+07   1.50e-72
  5.7815e+07   1.37e-72
  6.0188e+07   1.26e-72
  6.2659e+07   1.15e-72
  6.5232e+07   1.05e-72
  6.7910e+07   9.58e-73
  7.0698e+07   8.70e-73
  7.3600e+07   7.86e-73
  7.6621e+07   7.04e-73
  7.9767e+07   6.28e-73
  8.3042e+07   5.62e-73
  8.6451e+07   5.10e-73
  9.0000e+07   4.61e-73
