#  E [MeV]   Flux [# cm^{-2} s^{-1}  MeV^{-1}]
  3.0000e+04   1.31e-20
  3.1123e+04   1.26e-20
  3.2288e+04   1.21e-20
  3.3497e+04   1.17e-20
  3.4751e+04   1.12e-20
  3.6051e+04   1.08e-20
  3.7401e+04   1.03e-20
  3.8801e+04   9.92e-21
  4.0253e+04   9.52e-21
  4.1760e+04   9.15e-21
  4.3324e+04   8.78e-21
  4.4945e+04   8.43e-21
  4.6628e+04   8.09e-21
  4.8373e+04   7.77e-21
  5.0184e+04   7.46e-21
  5.2063e+04   7.16e-21
  5.4011e+04   6.87e-21
  5.6033e+04   6.59e-21
  5.8131e+04   6.32e-21
  6.0307e+04   6.07e-21
  6.2564e+04   5.82e-21
  6.4906e+04   5.58e-21
  6.7336e+04   5.35e-21
  6.9857e+04   5.13e-21
  7.2472e+04   4.92e-21
  7.5184e+04   4.71e-21
  7.7999e+04   4.52e-21
  8.0919e+04   4.33e-21
  8.3948e+04   4.14e-21
  8.7090e+04   3.97e-21
  9.0350e+04   3.80e-21
  9.3732e+04   3.64e-21
  9.7241e+04   3.48e-21
  1.0088e+05   3.33e-21
  1.0466e+05   3.19e-21
  1.0858e+05   3.05e-21
  1.1264e+05   2.92e-21
  1.1686e+05   2.79e-21
  1.2123e+05   2.67e-21
  1.2577e+05   2.55e-21
  1.3048e+05   2.43e-21
  1.3536e+05   2.32e-21
  1.4043e+05   2.22e-21
  1.4568e+05   2.12e-21
  1.5114e+05   2.02e-21
  1.5680e+05   1.92e-21
  1.6266e+05   1.83e-21
  1.6875e+05   1.75e-21
  1.7507e+05   1.66e-21
  1.8162e+05   1.58e-21
  1.8842e+05   1.51e-21
  1.9548e+05   1.43e-21
  2.0279e+05   1.36e-21
  2.1039e+05   1.30e-21
  2.1826e+05   1.23e-21
  2.2643e+05   1.17e-21
  2.3491e+05   1.11e-21
  2.4370e+05   1.05e-21
  2.5282e+05   9.96e-22
  2.6229e+05   9.43e-22
  2.7211e+05   8.93e-22
  2.8229e+05   8.45e-22
  2.9286e+05   7.98e-22
  3.0382e+05   7.54e-22
  3.1519e+05   7.12e-22
  3.2699e+05   6.71e-22
  3.3923e+05   6.33e-22
  3.5193e+05   5.96e-22
  3.6511e+05   5.61e-22
  3.7877e+05   5.27e-22
  3.9295e+05   4.96e-22
  4.0766e+05   4.65e-22
  4.2292e+05   4.37e-22
  4.3875e+05   4.10e-22
  4.5518e+05   3.84e-22
  4.7222e+05   3.59e-22
  4.8989e+05   3.36e-22
  5.0823e+05   3.15e-22
  5.2726e+05   2.94e-22
  5.4699e+05   2.74e-22
  5.6747e+05   2.56e-22
  5.8871e+05   2.39e-22
  6.1075e+05   2.22e-22
  6.3361e+05   2.07e-22
  6.5733e+05   1.93e-22
  6.8194e+05   1.79e-22
  7.0746e+05   1.67e-22
  7.3395e+05   1.55e-22
  7.6142e+05   1.44e-22
  7.8992e+05   1.34e-22
  8.1949e+05   1.24e-22
  8.5017e+05   1.15e-22
  8.8199e+05   1.07e-22
  9.1501e+05   9.88e-23
  9.4926e+05   9.16e-23
  9.8479e+05   8.48e-23
  1.0217e+06   7.86e-23
  1.0599e+06   7.28e-23
  1.0996e+06   6.74e-23
  1.1407e+06   6.23e-23
  1.1834e+06   5.76e-23
  1.2277e+06   5.33e-23
  1.2737e+06   4.93e-23
  1.3214e+06   4.56e-23
  1.3708e+06   4.21e-23
  1.4222e+06   3.89e-23
  1.4754e+06   3.60e-23
  1.5306e+06   3.32e-23
  1.5879e+06   3.07e-23
  1.6474e+06   2.83e-23
  1.7090e+06   2.61e-23
  1.7730e+06   2.41e-23
  1.8394e+06   2.22e-23
  1.9082e+06   2.05e-23
  1.9797e+06   1.89e-23
  2.0538e+06   1.74e-23
  2.1306e+06   1.60e-23
  2.2104e+06   1.47e-23
  2.2931e+06   1.35e-23
  2.3790e+06   1.24e-23
  2.4680e+06   1.14e-23
  2.5604e+06   1.05e-23
  2.6563e+06   9.60e-24
  2.7557e+06   8.79e-24
  2.8589e+06   8.05e-24
  2.9659e+06   7.36e-24
  3.0769e+06   6.72e-24
  3.1921e+06   6.14e-24
  3.3116e+06   5.60e-24
  3.4355e+06   5.09e-24
  3.5641e+06   4.64e-24
  3.6976e+06   4.21e-24
  3.8360e+06   3.81e-24
  3.9796e+06   3.46e-24
  4.1285e+06   3.13e-24
  4.2831e+06   2.82e-24
  4.4434e+06   2.55e-24
  4.6097e+06   2.29e-24
  4.7823e+06   2.05e-24
  4.9613e+06   1.84e-24
  5.1470e+06   1.65e-24
  5.3397e+06   1.47e-24
  5.5396e+06   1.31e-24
  5.7470e+06   1.16e-24
  5.9621e+06   1.03e-24
  6.1853e+06   9.10e-25
  6.4168e+06   8.03e-25
  6.6570e+06   7.05e-25
  6.9062e+06   6.17e-25
  7.1647e+06   5.39e-25
  7.4329e+06   4.68e-25
  7.7112e+06   4.05e-25
  7.9998e+06   3.51e-25
  8.2993e+06   3.01e-25
  8.6100e+06   2.57e-25
  8.9323e+06   2.19e-25
  9.2666e+06   1.85e-25
  9.6135e+06   1.55e-25
  9.9734e+06   1.30e-25
  1.0347e+07   1.08e-25
  1.0734e+07   8.84e-26
  1.1136e+07   7.26e-26
  1.1553e+07   5.89e-26
  1.1985e+07   4.70e-26
  1.2434e+07   3.75e-26
  1.2899e+07   2.96e-26
  1.3382e+07   2.28e-26
  1.3883e+07   1.75e-26
  1.4403e+07   1.33e-26
  1.4942e+07   9.84e-27
  1.5501e+07   7.19e-27
  1.6081e+07   5.17e-27
  1.6683e+07   3.61e-27
  1.7308e+07   2.45e-27
  1.7956e+07   1.64e-27
  1.8628e+07   1.05e-27
  1.9325e+07   6.45e-28
  2.0049e+07   3.88e-28
  2.0799e+07   2.20e-28
  2.1578e+07   1.17e-28
  2.2386e+07   6.02e-29
  2.3224e+07   2.85e-29
  2.4093e+07   1.22e-29
  2.4995e+07   4.94e-30
  2.5930e+07   1.77e-30
  2.6901e+07   5.45e-31
  2.7908e+07   1.48e-31
  2.8953e+07   3.35e-32
  3.0037e+07   5.98e-33
  3.1161e+07   8.37e-34
  3.2327e+07   8.56e-35
  3.3537e+07   5.86e-36
  3.4793e+07   2.56e-37
  3.6095e+07   6.37e-39
  3.7446e+07   7.66e-41
  3.8848e+07   3.81e-43
  4.0302e+07   6.31e-46
  4.1811e+07   2.51e-49
  4.3376e+07   1.67e-53
  4.5000e+07   1.16e-58
