#  E [GeV]   # per interaction  [GeV^{-1}]
  3.0000e+01   2.70e-02
  3.1123e+01   2.60e-02
  3.2288e+01   2.50e-02
  3.3497e+01   2.41e-02
  3.4751e+01   2.32e-02
  3.6051e+01   2.23e-02
  3.7401e+01   2.14e-02
  3.8801e+01   2.06e-02
  4.0253e+01   1.98e-02
  4.1760e+01   1.90e-02
  4.3324e+01   1.83e-02
  4.4945e+01   1.76e-02
  4.6628e+01   1.69e-02
  4.8373e+01   1.62e-02
  5.0184e+01   1.56e-02
  5.2063e+01   1.50e-02
  5.4011e+01   1.44e-02
  5.6033e+01   1.38e-02
  5.8131e+01   1.32e-02
  6.0307e+01   1.27e-02
  6.2564e+01   1.22e-02
  6.4906e+01   1.17e-02
  6.7336e+01   1.12e-02
  6.9857e+01   1.07e-02
  7.2472e+01   1.03e-02
  7.5184e+01   9.85e-03
  7.7999e+01   9.43e-03
  8.0919e+01   9.03e-03
  8.3948e+01   8.65e-03
  8.7090e+01   8.29e-03
  9.0350e+01   7.93e-03
  9.3732e+01   7.59e-03
  9.7241e+01   7.27e-03
  1.0088e+02   6.95e-03
  1.0466e+02   6.65e-03
  1.0858e+02   6.36e-03
  1.1264e+02   6.09e-03
  1.1686e+02   5.82e-03
  1.2123e+02   5.56e-03
  1.2577e+02   5.32e-03
  1.3048e+02   5.08e-03
  1.3536e+02   4.86e-03
  1.4043e+02   4.64e-03
  1.4568e+02   4.44e-03
  1.5114e+02   4.24e-03
  1.5680e+02   4.05e-03
  1.6266e+02   3.87e-03
  1.6875e+02   3.69e-03
  1.7507e+02   3.52e-03
  1.8162e+02   3.37e-03
  1.8842e+02   3.21e-03
  1.9548e+02   3.07e-03
  2.0279e+02   2.93e-03
  2.1039e+02   2.79e-03
  2.1826e+02   2.67e-03
  2.2643e+02   2.55e-03
  2.3491e+02   2.43e-03
  2.4370e+02   2.32e-03
  2.5282e+02   2.21e-03
  2.6229e+02   2.11e-03
  2.7211e+02   2.01e-03
  2.8229e+02   1.92e-03
  2.9286e+02   1.83e-03
  3.0382e+02   1.75e-03
  3.1519e+02   1.67e-03
  3.2699e+02   1.60e-03
  3.3923e+02   1.52e-03
  3.5193e+02   1.45e-03
  3.6511e+02   1.39e-03
  3.7877e+02   1.33e-03
  3.9295e+02   1.27e-03
  4.0766e+02   1.21e-03
  4.2292e+02   1.16e-03
  4.3875e+02   1.10e-03
  4.5518e+02   1.06e-03
  4.7222e+02   1.01e-03
  4.8989e+02   9.64e-04
  5.0823e+02   9.21e-04
  5.2726e+02   8.81e-04
  5.4699e+02   8.42e-04
  5.6747e+02   8.07e-04
  5.8871e+02   7.72e-04
  6.1075e+02   7.40e-04
  6.3361e+02   7.09e-04
  6.5733e+02   6.79e-04
  6.8194e+02   6.51e-04
  7.0746e+02   6.24e-04
  7.3395e+02   5.99e-04
  7.6142e+02   5.75e-04
  7.8992e+02   5.52e-04
  8.1949e+02   5.30e-04
  8.5017e+02   5.09e-04
  8.8199e+02   4.90e-04
  9.1501e+02   4.71e-04
  9.4926e+02   4.53e-04
  9.8479e+02   4.36e-04
  1.0217e+03   4.20e-04
  1.0599e+03   4.05e-04
  1.0996e+03   3.90e-04
  1.1407e+03   3.76e-04
  1.1834e+03   3.63e-04
  1.2277e+03   3.50e-04
  1.2737e+03   3.39e-04
  1.3214e+03   3.27e-04
  1.3708e+03   3.16e-04
  1.4222e+03   3.05e-04
  1.4754e+03   2.95e-04
  1.5306e+03   2.86e-04
  1.5879e+03   2.76e-04
  1.6474e+03   2.68e-04
  1.7090e+03   2.59e-04
  1.7730e+03   2.51e-04
  1.8394e+03   2.43e-04
  1.9082e+03   2.35e-04
  1.9797e+03   2.28e-04
  2.0538e+03   2.21e-04
  2.1306e+03   2.14e-04
  2.2104e+03   2.08e-04
  2.2931e+03   2.01e-04
  2.3790e+03   1.95e-04
  2.4680e+03   1.89e-04
  2.5604e+03   1.83e-04
  2.6563e+03   1.77e-04
  2.7557e+03   1.72e-04
  2.8589e+03   1.66e-04
  2.9659e+03   1.61e-04
  3.0769e+03   1.56e-04
  3.1921e+03   1.51e-04
  3.3116e+03   1.45e-04
  3.4355e+03   1.41e-04
  3.5641e+03   1.36e-04
  3.6976e+03   1.31e-04
  3.8360e+03   1.26e-04
  3.9796e+03   1.22e-04
  4.1285e+03   1.17e-04
  4.2831e+03   1.13e-04
  4.4434e+03   1.08e-04
  4.6097e+03   1.04e-04
  4.7823e+03   9.95e-05
  4.9613e+03   9.53e-05
  5.1470e+03   9.12e-05
  5.3397e+03   8.71e-05
  5.5396e+03   8.31e-05
  5.7470e+03   7.92e-05
  5.9621e+03   7.53e-05
  6.1853e+03   7.15e-05
  6.4168e+03   6.77e-05
  6.6570e+03   6.41e-05
  6.9062e+03   6.06e-05
  7.1647e+03   5.70e-05
  7.4329e+03   5.36e-05
  7.7112e+03   5.03e-05
  7.9998e+03   4.70e-05
  8.2993e+03   4.38e-05
  8.6100e+03   4.08e-05
  8.9323e+03   3.78e-05
  9.2666e+03   3.49e-05
  9.6135e+03   3.21e-05
  9.9734e+03   2.95e-05
  1.0347e+04   2.69e-05
  1.0734e+04   2.44e-05
  1.1136e+04   2.21e-05
  1.1553e+04   1.98e-05
  1.1985e+04   1.77e-05
  1.2434e+04   1.58e-05
  1.2899e+04   1.39e-05
  1.3382e+04   1.22e-05
  1.3883e+04   1.06e-05
  1.4403e+04   9.10e-06
  1.4942e+04   7.76e-06
  1.5501e+04   6.54e-06
  1.6081e+04   5.45e-06
  1.6683e+04   4.48e-06
  1.7308e+04   3.62e-06
  1.7956e+04   2.88e-06
  1.8628e+04   2.24e-06
  1.9325e+04   1.71e-06
  2.0049e+04   1.28e-06
  2.0799e+04   9.24e-07
  2.1578e+04   6.49e-07
  2.2386e+04   4.40e-07
  2.3224e+04   2.86e-07
  2.4093e+04   1.78e-07
  2.4995e+04   1.05e-07
  2.5930e+04   5.79e-08
  2.6901e+04   2.97e-08
  2.7908e+04   1.40e-08
  2.8953e+04   5.97e-09
  3.0037e+04   2.25e-09
  3.1161e+04   7.32e-10
  3.2327e+04   2.02e-10
  3.3537e+04   4.52e-11
  3.4793e+04   7.81e-12
  3.6095e+04   1.01e-12
  3.7446e+04   8.96e-14
  3.8848e+04   4.91e-15
  4.0302e+04   1.56e-16
  4.1811e+04   2.38e-18
  4.3376e+04   1.42e-20
  4.5000e+04   2.75e-23
