#  E [MeV]   Flux [# cm^{-2} s^{-1}  MeV^{-1}]
  3.0000e+04   1.46e-23
  3.1141e+04   1.40e-23
  3.2326e+04   1.34e-23
  3.3556e+04   1.29e-23
  3.4832e+04   1.24e-23
  3.6157e+04   1.19e-23
  3.7533e+04   1.15e-23
  3.8961e+04   1.10e-23
  4.0443e+04   1.06e-23
  4.1982e+04   1.02e-23
  4.3579e+04   9.76e-24
  4.5237e+04   9.37e-24
  4.6958e+04   9.00e-24
  4.8744e+04   8.64e-24
  5.0598e+04   8.30e-24
  5.2523e+04   7.97e-24
  5.4521e+04   7.65e-24
  5.6596e+04   7.34e-24
  5.8749e+04   7.05e-24
  6.0984e+04   6.77e-24
  6.3304e+04   6.49e-24
  6.5712e+04   6.23e-24
  6.8212e+04   5.98e-24
  7.0807e+04   5.74e-24
  7.3500e+04   5.50e-24
  7.6297e+04   5.28e-24
  7.9199e+04   5.06e-24
  8.2212e+04   4.85e-24
  8.5340e+04   4.65e-24
  8.8586e+04   4.46e-24
  9.1956e+04   4.27e-24
  9.5455e+04   4.10e-24
  9.9086e+04   3.93e-24
  1.0286e+05   3.76e-24
  1.0677e+05   3.60e-24
  1.1083e+05   3.45e-24
  1.1505e+05   3.30e-24
  1.1942e+05   3.16e-24
  1.2397e+05   3.02e-24
  1.2868e+05   2.89e-24
  1.3358e+05   2.77e-24
  1.3866e+05   2.65e-24
  1.4394e+05   2.53e-24
  1.4941e+05   2.42e-24
  1.5509e+05   2.31e-24
  1.6100e+05   2.21e-24
  1.6712e+05   2.11e-24
  1.7348e+05   2.01e-24
  1.8008e+05   1.92e-24
  1.8693e+05   1.83e-24
  1.9404e+05   1.75e-24
  2.0142e+05   1.67e-24
  2.0908e+05   1.59e-24
  2.1704e+05   1.51e-24
  2.2529e+05   1.44e-24
  2.3387e+05   1.37e-24
  2.4276e+05   1.30e-24
  2.5200e+05   1.24e-24
  2.6158e+05   1.18e-24
  2.7154e+05   1.12e-24
  2.8187e+05   1.07e-24
  2.9259e+05   1.01e-24
  3.0372e+05   9.62e-25
  3.1527e+05   9.13e-25
  3.2727e+05   8.66e-25
  3.3972e+05   8.21e-25
  3.5264e+05   7.78e-25
  3.6606e+05   7.36e-25
  3.7998e+05   6.97e-25
  3.9444e+05   6.59e-25
  4.0945e+05   6.23e-25
  4.2502e+05   5.89e-25
  4.4119e+05   5.56e-25
  4.5798e+05   5.25e-25
  4.7540e+05   4.96e-25
  4.9348e+05   4.67e-25
  5.1226e+05   4.41e-25
  5.3175e+05   4.15e-25
  5.5198e+05   3.91e-25
  5.7297e+05   3.68e-25
  5.9477e+05   3.46e-25
  6.1740e+05   3.25e-25
  6.4089e+05   3.06e-25
  6.6527e+05   2.87e-25
  6.9058e+05   2.69e-25
  7.1685e+05   2.53e-25
  7.4412e+05   2.37e-25
  7.7243e+05   2.22e-25
  8.0181e+05   2.08e-25
  8.3232e+05   1.95e-25
  8.6398e+05   1.82e-25
  8.9685e+05   1.70e-25
  9.3097e+05   1.59e-25
  9.6638e+05   1.49e-25
  1.0031e+06   1.39e-25
  1.0413e+06   1.30e-25
  1.0809e+06   1.21e-25
  1.1220e+06   1.13e-25
  1.1647e+06   1.05e-25
  1.2090e+06   9.78e-26
  1.2550e+06   9.10e-26
  1.3028e+06   8.47e-26
  1.3523e+06   7.87e-26
  1.4038e+06   7.30e-26
  1.4572e+06   6.78e-26
  1.5126e+06   6.29e-26
  1.5702e+06   5.83e-26
  1.6299e+06   5.40e-26
  1.6919e+06   5.00e-26
  1.7563e+06   4.63e-26
  1.8231e+06   4.28e-26
  1.8925e+06   3.96e-26
  1.9645e+06   3.65e-26
  2.0392e+06   3.37e-26
  2.1168e+06   3.11e-26
  2.1973e+06   2.86e-26
  2.2809e+06   2.63e-26
  2.3677e+06   2.42e-26
  2.4577e+06   2.23e-26
  2.5512e+06   2.04e-26
  2.6483e+06   1.88e-26
  2.7490e+06   1.72e-26
  2.8536e+06   1.57e-26
  2.9622e+06   1.44e-26
  3.0749e+06   1.32e-26
  3.1918e+06   1.20e-26
  3.3133e+06   1.10e-26
  3.4393e+06   9.99e-27
  3.5702e+06   9.09e-27
  3.7060e+06   8.28e-27
  3.8470e+06   7.52e-27
  3.9933e+06   6.82e-27
  4.1452e+06   6.19e-27
  4.3029e+06   5.61e-27
  4.4666e+06   5.07e-27
  4.6366e+06   4.59e-27
  4.8129e+06   4.15e-27
  4.9960e+06   3.73e-27
  5.1861e+06   3.37e-27
  5.3834e+06   3.03e-27
  5.5882e+06   2.71e-27
  5.8008e+06   2.44e-27
  6.0215e+06   2.19e-27
  6.2506e+06   1.95e-27
  6.4883e+06   1.75e-27
  6.7352e+06   1.56e-27
  6.9914e+06   1.39e-27
  7.2574e+06   1.24e-27
  7.5335e+06   1.10e-27
  7.8201e+06   9.77e-28
  8.1176e+06   8.68e-28
  8.4264e+06   7.70e-28
  8.7470e+06   6.78e-28
  9.0797e+06   5.99e-28
  9.4251e+06   5.30e-28
  9.7837e+06   4.64e-28
  1.0156e+07   4.08e-28
  1.0542e+07   3.59e-28
  1.0943e+07   3.13e-28
  1.1360e+07   2.73e-28
  1.1792e+07   2.39e-28
  1.2240e+07   2.07e-28
  1.2706e+07   1.79e-28
  1.3189e+07   1.56e-28
  1.3691e+07   1.34e-28
  1.4212e+07   1.15e-28
  1.4753e+07   9.94e-29
  1.5314e+07   8.50e-29
  1.5897e+07   7.21e-29
  1.6501e+07   6.18e-29
  1.7129e+07   5.24e-29
  1.7781e+07   4.39e-29
  1.8457e+07   3.72e-29
  1.9159e+07   3.12e-29
  1.9888e+07   2.57e-29
  2.0645e+07   2.15e-29
  2.1430e+07   1.76e-29
  2.2245e+07   1.42e-29
  2.3092e+07   1.16e-29
  2.3970e+07   9.30e-30
  2.4882e+07   7.27e-30
  2.5829e+07   5.72e-30
  2.6811e+07   4.41e-30
  2.7831e+07   3.30e-30
  2.8890e+07   2.47e-30
  2.9989e+07   1.80e-30
  3.1130e+07   1.25e-30
  3.2314e+07   8.58e-31
  3.3544e+07   5.65e-31
  3.4820e+07   3.49e-31
  3.6144e+07   2.05e-31
  3.7519e+07   1.11e-31
  3.8947e+07   5.45e-32
  4.0428e+07   2.37e-32
  4.1966e+07   8.93e-33
  4.3563e+07   2.73e-33
  4.5220e+07   6.46e-34
  4.6941e+07   1.11e-34
  4.8726e+07   1.22e-35
  5.0580e+07   7.64e-37
