#  E [MeV]   Flux [# cm^{-2} s^{-1}  MeV^{-1}]
  3.0000e+04   2.23e-27
  3.1232e+04   2.15e-27
  3.2514e+04   2.06e-27
  3.3849e+04   1.98e-27
  3.5238e+04   1.91e-27
  3.6685e+04   1.83e-27
  3.8191e+04   1.76e-27
  3.9759e+04   1.69e-27
  4.1391e+04   1.62e-27
  4.3090e+04   1.55e-27
  4.4859e+04   1.49e-27
  4.6701e+04   1.43e-27
  4.8618e+04   1.37e-27
  5.0614e+04   1.31e-27
  5.2692e+04   1.26e-27
  5.4855e+04   1.21e-27
  5.7107e+04   1.16e-27
  5.9451e+04   1.11e-27
  6.1892e+04   1.06e-27
  6.4433e+04   1.02e-27
  6.7078e+04   9.72e-28
  6.9832e+04   9.30e-28
  7.2699e+04   8.89e-28
  7.5683e+04   8.51e-28
  7.8790e+04   8.13e-28
  8.2025e+04   7.77e-28
  8.5392e+04   7.42e-28
  8.8898e+04   7.09e-28
  9.2547e+04   6.77e-28
  9.6347e+04   6.46e-28
  1.0030e+05   6.16e-28
  1.0442e+05   5.88e-28
  1.0871e+05   5.61e-28
  1.1317e+05   5.34e-28
  1.1782e+05   5.09e-28
  1.2265e+05   4.85e-28
  1.2769e+05   4.62e-28
  1.3293e+05   4.40e-28
  1.3839e+05   4.18e-28
  1.4407e+05   3.98e-28
  1.4998e+05   3.78e-28
  1.5614e+05   3.59e-28
  1.6255e+05   3.41e-28
  1.6922e+05   3.24e-28
  1.7617e+05   3.07e-28
  1.8340e+05   2.91e-28
  1.9093e+05   2.76e-28
  1.9877e+05   2.62e-28
  2.0693e+05   2.48e-28
  2.1543e+05   2.34e-28
  2.2427e+05   2.22e-28
  2.3348e+05   2.10e-28
  2.4306e+05   1.98e-28
  2.5304e+05   1.87e-28
  2.6343e+05   1.76e-28
  2.7424e+05   1.66e-28
  2.8550e+05   1.56e-28
  2.9722e+05   1.47e-28
  3.0942e+05   1.38e-28
  3.2213e+05   1.30e-28
  3.3535e+05   1.22e-28
  3.4912e+05   1.15e-28
  3.6345e+05   1.07e-28
  3.7837e+05   1.01e-28
  3.9390e+05   9.43e-29
  4.1008e+05   8.82e-29
  4.2691e+05   8.24e-29
  4.4444e+05   7.70e-29
  4.6268e+05   7.18e-29
  4.8168e+05   6.70e-29
  5.0145e+05   6.24e-29
  5.2204e+05   5.81e-29
  5.4347e+05   5.41e-29
  5.6578e+05   5.03e-29
  5.8901e+05   4.67e-29
  6.1319e+05   4.34e-29
  6.3836e+05   4.03e-29
  6.6457e+05   3.74e-29
  6.9185e+05   3.47e-29
  7.2025e+05   3.21e-29
  7.4982e+05   2.98e-29
  7.8061e+05   2.76e-29
  8.1265e+05   2.56e-29
  8.4601e+05   2.37e-29
  8.8075e+05   2.19e-29
  9.1690e+05   2.03e-29
  9.5455e+05   1.88e-29
  9.9373e+05   1.74e-29
  1.0345e+06   1.61e-29
  1.0770e+06   1.49e-29
  1.1212e+06   1.38e-29
  1.1672e+06   1.28e-29
  1.2152e+06   1.19e-29
  1.2650e+06   1.10e-29
  1.3170e+06   1.02e-29
  1.3711e+06   9.46e-30
  1.4273e+06   8.78e-30
  1.4859e+06   8.14e-30
  1.5469e+06   7.56e-30
  1.6104e+06   7.02e-30
  1.6766e+06   6.52e-30
  1.7454e+06   6.05e-30
  1.8170e+06   5.63e-30
  1.8916e+06   5.23e-30
  1.9693e+06   4.86e-30
  2.0501e+06   4.52e-30
  2.1343e+06   4.20e-30
  2.2219e+06   3.91e-30
  2.3131e+06   3.64e-30
  2.4081e+06   3.38e-30
  2.5070e+06   3.14e-30
  2.6099e+06   2.92e-30
  2.7170e+06   2.72e-30
  2.8286e+06   2.53e-30
  2.9447e+06   2.35e-30
  3.0656e+06   2.19e-30
  3.1914e+06   2.04e-30
  3.3225e+06   1.89e-30
  3.4589e+06   1.76e-30
  3.6008e+06   1.63e-30
  3.7487e+06   1.52e-30
  3.9026e+06   1.41e-30
  4.0628e+06   1.30e-30
  4.2296e+06   1.21e-30
  4.4032e+06   1.12e-30
  4.5840e+06   1.04e-30
  4.7722e+06   9.57e-31
  4.9681e+06   8.85e-31
  5.1720e+06   8.16e-31
  5.3844e+06   7.52e-31
  5.6054e+06   6.92e-31
  5.8355e+06   6.36e-31
  6.0751e+06   5.83e-31
  6.3245e+06   5.34e-31
  6.5841e+06   4.88e-31
  6.8544e+06   4.45e-31
  7.1358e+06   4.05e-31
  7.4288e+06   3.67e-31
  7.7338e+06   3.32e-31
  8.0513e+06   2.99e-31
  8.3818e+06   2.68e-31
  8.7259e+06   2.40e-31
  9.0841e+06   2.13e-31
  9.4571e+06   1.89e-31
  9.8453e+06   1.66e-31
  1.0249e+07   1.45e-31
  1.0670e+07   1.26e-31
  1.1108e+07   1.09e-31
  1.1564e+07   9.28e-32
  1.2039e+07   7.83e-32
  1.2533e+07   6.54e-32
  1.3048e+07   5.39e-32
  1.3584e+07   4.38e-32
  1.4141e+07   3.51e-32
  1.4722e+07   2.75e-32
  1.5326e+07   2.12e-32
  1.5955e+07   1.59e-32
  1.6610e+07   1.16e-32
  1.7292e+07   8.23e-33
  1.8002e+07   5.63e-33
  1.8741e+07   3.70e-33
  1.9511e+07   2.32e-33
  2.0312e+07   1.38e-33
  2.1145e+07   7.67e-34
  2.2013e+07   3.97e-34
  2.2917e+07   1.88e-34
  2.3858e+07   8.04e-35
  2.4837e+07   3.05e-35
  2.5857e+07   1.00e-35
  2.6919e+07   2.76e-36
  2.8024e+07   6.21e-37
  2.9174e+07   1.09e-37
  3.0372e+07   1.40e-38
  3.1619e+07   1.25e-39
  3.2917e+07   7.07e-41
  3.4268e+07   2.27e-42
  3.5675e+07   3.58e-44
  3.7140e+07   2.33e-46
  3.8664e+07   4.93e-49
  4.0252e+07   2.47e-52
  4.1904e+07   1.95e-56
  4.3624e+07   1.39e-61
  4.5415e+07   4.24e-68
  4.7280e+07   1.02e-71
  4.9221e+07   9.65e-72
  5.1241e+07   9.11e-72
  5.3345e+07   8.60e-72
  5.5535e+07   8.12e-72
  5.7815e+07   7.67e-72
  6.0188e+07   7.23e-72
  6.2659e+07   6.82e-72
  6.5232e+07   6.42e-72
  6.7910e+07   6.04e-72
  7.0698e+07   5.68e-72
  7.3600e+07   5.34e-72
  7.6621e+07   5.02e-72
  7.9767e+07   4.70e-72
  8.3042e+07   4.40e-72
  8.6451e+07   4.12e-72
  9.0000e+07   3.88e-72
