#  E [MeV]   Flux [# cm^{-2} s^{-1}  MeV^{-1}]
  3.0000e+04   2.33e-19
  3.0854e+04   2.26e-19
  3.1733e+04   2.18e-19
  3.2636e+04   2.11e-19
  3.3566e+04   2.04e-19
  3.4521e+04   1.97e-19
  3.5504e+04   1.91e-19
  3.6515e+04   1.84e-19
  3.7555e+04   1.78e-19
  3.8625e+04   1.72e-19
  3.9724e+04   1.66e-19
  4.0855e+04   1.60e-19
  4.2019e+04   1.55e-19
  4.3215e+04   1.49e-19
  4.4446e+04   1.44e-19
  4.5711e+04   1.39e-19
  4.7013e+04   1.34e-19
  4.8352e+04   1.29e-19
  4.9728e+04   1.24e-19
  5.1144e+04   1.20e-19
  5.2601e+04   1.15e-19
  5.4099e+04   1.11e-19
  5.5639e+04   1.07e-19
  5.7223e+04   1.02e-19
  5.8853e+04   9.85e-20
  6.0528e+04   9.47e-20
  6.2252e+04   9.10e-20
  6.4025e+04   8.74e-20
  6.5848e+04   8.39e-20
  6.7723e+04   8.06e-20
  6.9651e+04   7.73e-20
  7.1634e+04   7.42e-20
  7.3674e+04   7.11e-20
  7.5772e+04   6.82e-20
  7.7929e+04   6.53e-20
  8.0148e+04   6.26e-20
  8.2431e+04   6.00e-20
  8.4778e+04   5.74e-20
  8.7192e+04   5.49e-20
  8.9674e+04   5.25e-20
  9.2228e+04   5.03e-20
  9.4854e+04   4.80e-20
  9.7555e+04   4.59e-20
  1.0033e+05   4.38e-20
  1.0319e+05   4.18e-20
  1.0613e+05   3.99e-20
  1.0915e+05   3.81e-20
  1.1226e+05   3.63e-20
  1.1545e+05   3.47e-20
  1.1874e+05   3.30e-20
  1.2212e+05   3.15e-20
  1.2560e+05   3.00e-20
  1.2918e+05   2.86e-20
  1.3286e+05   2.72e-20
  1.3664e+05   2.59e-20
  1.4053e+05   2.46e-20
  1.4453e+05   2.34e-20
  1.4865e+05   2.22e-20
  1.5288e+05   2.11e-20
  1.5723e+05   2.01e-20
  1.6171e+05   1.91e-20
  1.6631e+05   1.81e-20
  1.7105e+05   1.72e-20
  1.7592e+05   1.63e-20
  1.8093e+05   1.54e-20
  1.8608e+05   1.46e-20
  1.9138e+05   1.38e-20
  1.9683e+05   1.31e-20
  2.0243e+05   1.23e-20
  2.0820e+05   1.17e-20
  2.1413e+05   1.10e-20
  2.2022e+05   1.04e-20
  2.2649e+05   9.79e-21
  2.3294e+05   9.23e-21
  2.3958e+05   8.69e-21
  2.4640e+05   8.18e-21
  2.5341e+05   7.70e-21
  2.6063e+05   7.24e-21
  2.6805e+05   6.79e-21
  2.7568e+05   6.38e-21
  2.8353e+05   5.99e-21
  2.9161e+05   5.61e-21
  2.9991e+05   5.26e-21
  3.0845e+05   4.92e-21
  3.1723e+05   4.61e-21
  3.2627e+05   4.31e-21
  3.3556e+05   4.02e-21
  3.4511e+05   3.76e-21
  3.5494e+05   3.51e-21
  3.6504e+05   3.27e-21
  3.7544e+05   3.04e-21
  3.8613e+05   2.83e-21
  3.9712e+05   2.63e-21
  4.0843e+05   2.44e-21
  4.2006e+05   2.26e-21
  4.3202e+05   2.10e-21
  4.4432e+05   1.95e-21
  4.5698e+05   1.80e-21
  4.6999e+05   1.66e-21
  4.8337e+05   1.54e-21
  4.9713e+05   1.42e-21
  5.1129e+05   1.31e-21
  5.2585e+05   1.21e-21
  5.4082e+05   1.11e-21
  5.5622e+05   1.03e-21
  5.7206e+05   9.43e-22
  5.8835e+05   8.66e-22
  6.0510e+05   7.95e-22
  6.2233e+05   7.30e-22
  6.4005e+05   6.70e-22
  6.5828e+05   6.13e-22
  6.7702e+05   5.60e-22
  6.9630e+05   5.14e-22
  7.1613e+05   4.70e-22
  7.3652e+05   4.29e-22
  7.5749e+05   3.91e-22
  7.7906e+05   3.57e-22
  8.0124e+05   3.26e-22
  8.2406e+05   2.96e-22
  8.4752e+05   2.69e-22
  8.7165e+05   2.45e-22
  8.9647e+05   2.23e-22
  9.2200e+05   2.03e-22
  9.4825e+05   1.83e-22
  9.7526e+05   1.67e-22
  1.0030e+06   1.52e-22
  1.0316e+06   1.38e-22
  1.0610e+06   1.24e-22
  1.0912e+06   1.13e-22
  1.1222e+06   1.03e-22
  1.1542e+06   9.27e-23
  1.1871e+06   8.36e-23
  1.2209e+06   7.58e-23
  1.2556e+06   6.87e-23
  1.2914e+06   6.21e-23
  1.3281e+06   5.58e-23
  1.3660e+06   5.05e-23
  1.4049e+06   4.58e-23
  1.4449e+06   4.13e-23
  1.4860e+06   3.71e-23
  1.5283e+06   3.35e-23
  1.5718e+06   3.03e-23
  1.6166e+06   2.73e-23
  1.6626e+06   2.44e-23
  1.7100e+06   2.20e-23
  1.7587e+06   1.99e-23
  1.8087e+06   1.79e-23
  1.8602e+06   1.60e-23
  1.9132e+06   1.44e-23
  1.9677e+06   1.30e-23
  2.0237e+06   1.17e-23
  2.0813e+06   1.04e-23
  2.1406e+06   9.35e-24
  2.2016e+06   8.44e-24
  2.2642e+06   7.59e-24
  2.3287e+06   6.78e-24
  2.3950e+06   6.05e-24
  2.4632e+06   5.46e-24
  2.5334e+06   4.90e-24
  2.6055e+06   4.38e-24
  2.6797e+06   3.89e-24
  2.7560e+06   3.51e-24
  2.8345e+06   3.15e-24
  2.9152e+06   2.81e-24
  2.9982e+06   2.49e-24
  3.0836e+06   2.24e-24
  3.1714e+06   2.01e-24
  3.2617e+06   1.79e-24
  3.3545e+06   1.59e-24
  3.4501e+06   1.43e-24
  3.5483e+06   1.27e-24
  3.6493e+06   1.13e-24
  3.7532e+06   9.99e-25
  3.8601e+06   8.94e-25
  3.9700e+06   8.01e-25
  4.0831e+06   7.13e-25
  4.1993e+06   6.30e-25
  4.3189e+06   5.64e-25
  4.4419e+06   5.07e-25
  4.5684e+06   4.53e-25
  4.6985e+06   4.03e-25
  4.8322e+06   3.63e-25
  4.9698e+06   3.30e-25
  5.1114e+06   3.00e-25
  5.2569e+06   2.71e-25
  5.4066e+06   2.47e-25
  5.5605e+06   2.27e-25
  5.7189e+06   2.08e-25
  5.8817e+06   1.91e-25
  6.0492e+06   1.76e-25
  6.2214e+06   1.64e-25
  6.3986e+06   1.52e-25
  6.5808e+06   1.41e-25
  6.7682e+06   1.31e-25
  6.9609e+06   1.23e-25
  7.1591e+06   1.15e-25
  7.3630e+06   1.07e-25
  7.5726e+06   9.98e-26
  7.7882e+06   9.31e-26
  8.0100e+06   8.66e-26
