#  E [GeV]   # per interaction  [GeV^{-1}]
  3.0000e+01   1.15e+00
  3.1141e+01   1.10e+00
  3.2326e+01   1.05e+00
  3.3556e+01   1.00e+00
  3.4832e+01   9.57e-01
  3.6157e+01   9.15e-01
  3.7533e+01   8.74e-01
  3.8961e+01   8.35e-01
  4.0443e+01   7.97e-01
  4.1982e+01   7.61e-01
  4.3579e+01   7.27e-01
  4.5237e+01   6.94e-01
  4.6958e+01   6.62e-01
  4.8744e+01   6.32e-01
  5.0598e+01   6.03e-01
  5.2523e+01   5.75e-01
  5.4521e+01   5.48e-01
  5.6596e+01   5.23e-01
  5.8749e+01   4.98e-01
  6.0984e+01   4.75e-01
  6.3304e+01   4.53e-01
  6.5712e+01   4.31e-01
  6.8212e+01   4.11e-01
  7.0807e+01   3.91e-01
  7.3500e+01   3.73e-01
  7.6297e+01   3.55e-01
  7.9199e+01   3.38e-01
  8.2212e+01   3.22e-01
  8.5340e+01   3.06e-01
  8.8586e+01   2.91e-01
  9.1956e+01   2.77e-01
  9.5455e+01   2.63e-01
  9.9086e+01   2.50e-01
  1.0286e+02   2.38e-01
  1.0677e+02   2.26e-01
  1.1083e+02   2.15e-01
  1.1505e+02   2.04e-01
  1.1942e+02   1.94e-01
  1.2397e+02   1.84e-01
  1.2868e+02   1.74e-01
  1.3358e+02   1.65e-01
  1.3866e+02   1.57e-01
  1.4394e+02   1.49e-01
  1.4941e+02   1.41e-01
  1.5509e+02   1.34e-01
  1.6100e+02   1.26e-01
  1.6712e+02   1.20e-01
  1.7348e+02   1.13e-01
  1.8008e+02   1.07e-01
  1.8693e+02   1.01e-01
  1.9404e+02   9.58e-02
  2.0142e+02   9.05e-02
  2.0908e+02   8.54e-02
  2.1704e+02   8.06e-02
  2.2529e+02   7.61e-02
  2.3387e+02   7.17e-02
  2.4276e+02   6.76e-02
  2.5200e+02   6.36e-02
  2.6158e+02   5.99e-02
  2.7154e+02   5.63e-02
  2.8187e+02   5.30e-02
  2.9259e+02   4.97e-02
  3.0372e+02   4.67e-02
  3.1527e+02   4.38e-02
  3.2727e+02   4.10e-02
  3.3972e+02   3.84e-02
  3.5264e+02   3.60e-02
  3.6606e+02   3.36e-02
  3.7998e+02   3.14e-02
  3.9444e+02   2.93e-02
  4.0945e+02   2.73e-02
  4.2502e+02   2.55e-02
  4.4119e+02   2.37e-02
  4.5798e+02   2.21e-02
  4.7540e+02   2.05e-02
  4.9348e+02   1.91e-02
  5.1226e+02   1.77e-02
  5.3175e+02   1.64e-02
  5.5198e+02   1.52e-02
  5.7297e+02   1.41e-02
  5.9477e+02   1.30e-02
  6.1740e+02   1.21e-02
  6.4089e+02   1.12e-02
  6.6527e+02   1.03e-02
  6.9058e+02   9.51e-03
  7.1685e+02   8.78e-03
  7.4412e+02   8.09e-03
  7.7243e+02   7.46e-03
  8.0181e+02   6.88e-03
  8.3232e+02   6.33e-03
  8.6398e+02   5.83e-03
  8.9685e+02   5.36e-03
  9.3097e+02   4.93e-03
  9.6638e+02   4.54e-03
  1.0031e+03   4.17e-03
  1.0413e+03   3.83e-03
  1.0809e+03   3.52e-03
  1.1220e+03   3.23e-03
  1.1647e+03   2.97e-03
  1.2090e+03   2.72e-03
  1.2550e+03   2.50e-03
  1.3028e+03   2.29e-03
  1.3523e+03   2.10e-03
  1.4038e+03   1.92e-03
  1.4572e+03   1.76e-03
  1.5126e+03   1.61e-03
  1.5702e+03   1.47e-03
  1.6299e+03   1.35e-03
  1.6919e+03   1.23e-03
  1.7563e+03   1.13e-03
  1.8231e+03   1.03e-03
  1.8925e+03   9.37e-04
  1.9645e+03   8.55e-04
  2.0392e+03   7.80e-04
  2.1168e+03   7.09e-04
  2.1973e+03   6.46e-04
  2.2809e+03   5.88e-04
  2.3677e+03   5.33e-04
  2.4577e+03   4.84e-04
  2.5512e+03   4.39e-04
  2.6483e+03   3.97e-04
  2.7490e+03   3.59e-04
  2.8536e+03   3.25e-04
  2.9622e+03   2.92e-04
  3.0749e+03   2.63e-04
  3.1918e+03   2.37e-04
  3.3133e+03   2.13e-04
  3.4393e+03   1.91e-04
  3.5702e+03   1.71e-04
  3.7060e+03   1.53e-04
  3.8470e+03   1.36e-04
  3.9933e+03   1.22e-04
  4.1452e+03   1.08e-04
  4.3029e+03   9.57e-05
  4.4666e+03   8.50e-05
  4.6366e+03   7.51e-05
  4.8129e+03   6.60e-05
  4.9960e+03   5.83e-05
  5.1861e+03   5.11e-05
  5.3834e+03   4.45e-05
  5.5882e+03   3.90e-05
  5.8008e+03   3.39e-05
  6.0215e+03   2.93e-05
  6.2506e+03   2.54e-05
  6.4883e+03   2.19e-05
  6.7352e+03   1.87e-05
  6.9914e+03   1.61e-05
  7.2574e+03   1.38e-05
  7.5335e+03   1.16e-05
  7.8201e+03   9.88e-06
  8.1176e+03   8.34e-06
  8.4264e+03   6.96e-06
  8.7470e+03   5.83e-06
  9.0797e+03   4.85e-06
  9.4251e+03   3.99e-06
  9.7837e+03   3.27e-06
  1.0156e+04   2.68e-06
  1.0542e+04   2.16e-06
  1.0943e+04   1.73e-06
  1.1360e+04   1.39e-06
  1.1792e+04   1.09e-06
  1.2240e+04   8.53e-07
  1.2706e+04   6.65e-07
  1.3189e+04   5.07e-07
  1.3691e+04   3.82e-07
  1.4212e+04   2.87e-07
  1.4753e+04   2.11e-07
  1.5314e+04   1.51e-07
  1.5897e+04   1.08e-07
  1.6501e+04   7.50e-08
  1.7129e+04   5.04e-08
  1.7781e+04   3.35e-08
  1.8457e+04   2.14e-08
  1.9159e+04   1.31e-08
  1.9888e+04   7.82e-09
  2.0645e+04   4.43e-09
  2.1430e+04   2.35e-09
  2.2245e+04   1.20e-09
  2.3092e+04   5.60e-10
  2.3970e+04   2.39e-10
  2.4882e+04   9.34e-11
  2.5829e+04   3.22e-11
  2.6811e+04   9.59e-12
  2.7831e+04   2.43e-12
  2.8890e+04   5.01e-13
  2.9989e+04   8.06e-14
  3.1130e+04   9.76e-15
  3.2314e+04   8.28e-16
  3.3544e+04   4.55e-17
  3.4820e+04   1.48e-18
  3.6144e+04   2.50e-20
  3.7519e+04   1.88e-22
  3.8947e+04   5.12e-25
  4.0428e+04   3.91e-28
  4.1966e+04   5.95e-32
  4.3563e+04   1.16e-36
  4.5220e+04   1.59e-42
  4.6941e+04   1.36e-47
  4.8726e+04   1.24e-47
  5.0580e+04   1.13e-47
