#  E [GeV]   # per interaction  [GeV^{-1}]
  3.0000e+01   5.49e-01
  3.1141e+01   5.27e-01
  3.2326e+01   5.06e-01
  3.3556e+01   4.86e-01
  3.4832e+01   4.67e-01
  3.6157e+01   4.48e-01
  3.7533e+01   4.30e-01
  3.8961e+01   4.13e-01
  4.0443e+01   3.96e-01
  4.1982e+01   3.80e-01
  4.3579e+01   3.65e-01
  4.5237e+01   3.50e-01
  4.6958e+01   3.36e-01
  4.8744e+01   3.22e-01
  5.0598e+01   3.09e-01
  5.2523e+01   2.96e-01
  5.4521e+01   2.84e-01
  5.6596e+01   2.73e-01
  5.8749e+01   2.61e-01
  6.0984e+01   2.51e-01
  6.3304e+01   2.40e-01
  6.5712e+01   2.30e-01
  6.8212e+01   2.21e-01
  7.0807e+01   2.12e-01
  7.3500e+01   2.03e-01
  7.6297e+01   1.94e-01
  7.9199e+01   1.86e-01
  8.2212e+01   1.78e-01
  8.5340e+01   1.71e-01
  8.8586e+01   1.64e-01
  9.1956e+01   1.57e-01
  9.5455e+01   1.50e-01
  9.9086e+01   1.43e-01
  1.0286e+02   1.37e-01
  1.0677e+02   1.31e-01
  1.1083e+02   1.26e-01
  1.1505e+02   1.20e-01
  1.1942e+02   1.15e-01
  1.2397e+02   1.10e-01
  1.2868e+02   1.05e-01
  1.3358e+02   1.00e-01
  1.3866e+02   9.57e-02
  1.4394e+02   9.14e-02
  1.4941e+02   8.72e-02
  1.5509e+02   8.32e-02
  1.6100e+02   7.94e-02
  1.6712e+02   7.57e-02
  1.7348e+02   7.22e-02
  1.8008e+02   6.88e-02
  1.8693e+02   6.55e-02
  1.9404e+02   6.24e-02
  2.0142e+02   5.94e-02
  2.0908e+02   5.65e-02
  2.1704e+02   5.38e-02
  2.2529e+02   5.11e-02
  2.3387e+02   4.86e-02
  2.4276e+02   4.61e-02
  2.5200e+02   4.38e-02
  2.6158e+02   4.16e-02
  2.7154e+02   3.94e-02
  2.8187e+02   3.74e-02
  2.9259e+02   3.54e-02
  3.0372e+02   3.36e-02
  3.1527e+02   3.18e-02
  3.2727e+02   3.01e-02
  3.3972e+02   2.84e-02
  3.5264e+02   2.69e-02
  3.6606e+02   2.54e-02
  3.7998e+02   2.39e-02
  3.9444e+02   2.26e-02
  4.0945e+02   2.13e-02
  4.2502e+02   2.01e-02
  4.4119e+02   1.89e-02
  4.5798e+02   1.78e-02
  4.7540e+02   1.67e-02
  4.9348e+02   1.57e-02
  5.1226e+02   1.48e-02
  5.3175e+02   1.39e-02
  5.5198e+02   1.30e-02
  5.7297e+02   1.22e-02
  5.9477e+02   1.14e-02
  6.1740e+02   1.07e-02
  6.4089e+02   1.00e-02
  6.6527e+02   9.38e-03
  6.9058e+02   8.77e-03
  7.1685e+02   8.20e-03
  7.4412e+02   7.66e-03
  7.7243e+02   7.15e-03
  8.0181e+02   6.68e-03
  8.3232e+02   6.23e-03
  8.6398e+02   5.81e-03
  8.9685e+02   5.42e-03
  9.3097e+02   5.05e-03
  9.6638e+02   4.70e-03
  1.0031e+03   4.38e-03
  1.0413e+03   4.08e-03
  1.0809e+03   3.80e-03
  1.1220e+03   3.53e-03
  1.1647e+03   3.29e-03
  1.2090e+03   3.05e-03
  1.2550e+03   2.84e-03
  1.3028e+03   2.64e-03
  1.3523e+03   2.45e-03
  1.4038e+03   2.27e-03
  1.4572e+03   2.11e-03
  1.5126e+03   1.96e-03
  1.5702e+03   1.81e-03
  1.6299e+03   1.68e-03
  1.6919e+03   1.56e-03
  1.7563e+03   1.44e-03
  1.8231e+03   1.34e-03
  1.8925e+03   1.24e-03
  1.9645e+03   1.14e-03
  2.0392e+03   1.06e-03
  2.1168e+03   9.76e-04
  2.1973e+03   9.01e-04
  2.2809e+03   8.33e-04
  2.3677e+03   7.68e-04
  2.4577e+03   7.07e-04
  2.5512e+03   6.52e-04
  2.6483e+03   6.00e-04
  2.7490e+03   5.51e-04
  2.8536e+03   5.07e-04
  2.9622e+03   4.66e-04
  3.0749e+03   4.27e-04
  3.1918e+03   3.91e-04
  3.3133e+03   3.59e-04
  3.4393e+03   3.28e-04
  3.5702e+03   3.00e-04
  3.7060e+03   2.74e-04
  3.8470e+03   2.50e-04
  3.9933e+03   2.28e-04
  4.1452e+03   2.07e-04
  4.3029e+03   1.88e-04
  4.4666e+03   1.71e-04
  4.6366e+03   1.55e-04
  4.8129e+03   1.40e-04
  4.9960e+03   1.27e-04
  5.1861e+03   1.14e-04
  5.3834e+03   1.03e-04
  5.5882e+03   9.25e-05
  5.8008e+03   8.32e-05
  6.0215e+03   7.44e-05
  6.2506e+03   6.65e-05
  6.4883e+03   5.94e-05
  6.7352e+03   5.29e-05
  6.9914e+03   4.69e-05
  7.2574e+03   4.17e-05
  7.5335e+03   3.68e-05
  7.8201e+03   3.24e-05
  8.1176e+03   2.85e-05
  8.4264e+03   2.50e-05
  8.7470e+03   2.18e-05
  9.0797e+03   1.90e-05
  9.4251e+03   1.65e-05
  9.7837e+03   1.42e-05
  1.0156e+04   1.23e-05
  1.0542e+04   1.05e-05
  1.0943e+04   8.88e-06
  1.1360e+04   7.56e-06
  1.1792e+04   6.37e-06
  1.2240e+04   5.30e-06
  1.2706e+04   4.42e-06
  1.3189e+04   3.65e-06
  1.3691e+04   2.97e-06
  1.4212e+04   2.42e-06
  1.4753e+04   1.95e-06
  1.5314e+04   1.54e-06
  1.5897e+04   1.22e-06
  1.6501e+04   9.46e-07
  1.7129e+04   7.19e-07
  1.7781e+04   5.42e-07
  1.8457e+04   4.02e-07
  1.9159e+04   2.89e-07
  1.9888e+04   2.04e-07
  2.0645e+04   1.41e-07
  2.1430e+04   9.36e-08
  2.2245e+04   6.02e-08
  2.3092e+04   3.75e-08
  2.3970e+04   2.21e-08
  2.4882e+04   1.23e-08
  2.5829e+04   6.56e-09
  2.6811e+04   3.20e-09
  2.7831e+04   1.43e-09
  2.8890e+04   5.88e-10
  2.9989e+04   2.11e-10
  3.1130e+04   6.52e-11
  3.2314e+04   1.73e-11
  3.3544e+04   3.67e-12
  3.4820e+04   5.92e-13
  3.6144e+04   7.14e-14
  3.7519e+04   5.72e-15
  3.8947e+04   2.75e-16
  4.0428e+04   7.48e-18
  4.1966e+04   9.25e-20
  4.3563e+04   4.18e-22
  4.5220e+04   5.49e-25
  4.6941e+04   1.39e-28
  4.8726e+04   4.06e-33
  5.0580e+04   7.61e-39
