#  E [MeV]   Flux [# cm^{-2} s^{-1}  MeV^{-1}]
  3.0000e+04   9.35e-25
  3.1141e+04   8.99e-25
  3.2326e+04   8.64e-25
  3.3556e+04   8.30e-25
  3.4832e+04   7.98e-25
  3.6157e+04   7.66e-25
  3.7533e+04   7.36e-25
  3.8961e+04   7.07e-25
  4.0443e+04   6.79e-25
  4.1982e+04   6.53e-25
  4.3579e+04   6.27e-25
  4.5237e+04   6.02e-25
  4.6958e+04   5.78e-25
  4.8744e+04   5.55e-25
  5.0598e+04   5.33e-25
  5.2523e+04   5.12e-25
  5.4521e+04   4.91e-25
  5.6596e+04   4.71e-25
  5.8749e+04   4.52e-25
  6.0984e+04   4.34e-25
  6.3304e+04   4.17e-25
  6.5712e+04   4.00e-25
  6.8212e+04   3.83e-25
  7.0807e+04   3.68e-25
  7.3500e+04   3.53e-25
  7.6297e+04   3.38e-25
  7.9199e+04   3.24e-25
  8.2212e+04   3.11e-25
  8.5340e+04   2.98e-25
  8.8586e+04   2.85e-25
  9.1956e+04   2.73e-25
  9.5455e+04   2.62e-25
  9.9086e+04   2.51e-25
  1.0286e+05   2.40e-25
  1.0677e+05   2.30e-25
  1.1083e+05   2.20e-25
  1.1505e+05   2.10e-25
  1.1942e+05   2.01e-25
  1.2397e+05   1.93e-25
  1.2868e+05   1.84e-25
  1.3358e+05   1.76e-25
  1.3866e+05   1.68e-25
  1.4394e+05   1.61e-25
  1.4941e+05   1.53e-25
  1.5509e+05   1.46e-25
  1.6100e+05   1.40e-25
  1.6712e+05   1.33e-25
  1.7348e+05   1.27e-25
  1.8008e+05   1.21e-25
  1.8693e+05   1.15e-25
  1.9404e+05   1.10e-25
  2.0142e+05   1.04e-25
  2.0908e+05   9.94e-26
  2.1704e+05   9.45e-26
  2.2529e+05   8.98e-26
  2.3387e+05   8.54e-26
  2.4276e+05   8.11e-26
  2.5200e+05   7.69e-26
  2.6158e+05   7.30e-26
  2.7154e+05   6.92e-26
  2.8187e+05   6.55e-26
  2.9259e+05   6.20e-26
  3.0372e+05   5.87e-26
  3.1527e+05   5.55e-26
  3.2727e+05   5.24e-26
  3.3972e+05   4.95e-26
  3.5264e+05   4.67e-26
  3.6606e+05   4.40e-26
  3.7998e+05   4.15e-26
  3.9444e+05   3.91e-26
  4.0945e+05   3.68e-26
  4.2502e+05   3.46e-26
  4.4119e+05   3.25e-26
  4.5798e+05   3.05e-26
  4.7540e+05   2.86e-26
  4.9348e+05   2.68e-26
  5.1226e+05   2.51e-26
  5.3175e+05   2.35e-26
  5.5198e+05   2.20e-26
  5.7297e+05   2.06e-26
  5.9477e+05   1.92e-26
  6.1740e+05   1.79e-26
  6.4089e+05   1.67e-26
  6.6527e+05   1.56e-26
  6.9058e+05   1.45e-26
  7.1685e+05   1.35e-26
  7.4412e+05   1.26e-26
  7.7243e+05   1.17e-26
  8.0181e+05   1.09e-26
  8.3232e+05   1.01e-26
  8.6398e+05   9.39e-27
  8.9685e+05   8.72e-27
  9.3097e+05   8.09e-27
  9.6638e+05   7.51e-27
  1.0031e+06   6.96e-27
  1.0413e+06   6.45e-27
  1.0809e+06   5.98e-27
  1.1220e+06   5.54e-27
  1.1647e+06   5.13e-27
  1.2090e+06   4.74e-27
  1.2550e+06   4.39e-27
  1.3028e+06   4.06e-27
  1.3523e+06   3.75e-27
  1.4038e+06   3.46e-27
  1.4572e+06   3.19e-27
  1.5126e+06   2.95e-27
  1.5702e+06   2.72e-27
  1.6299e+06   2.50e-27
  1.6919e+06   2.31e-27
  1.7563e+06   2.12e-27
  1.8231e+06   1.96e-27
  1.8925e+06   1.80e-27
  1.9645e+06   1.65e-27
  2.0392e+06   1.52e-27
  2.1168e+06   1.39e-27
  2.1973e+06   1.28e-27
  2.2809e+06   1.17e-27
  2.3677e+06   1.07e-27
  2.4577e+06   9.82e-28
  2.5512e+06   8.99e-28
  2.6483e+06   8.21e-28
  2.7490e+06   7.48e-28
  2.8536e+06   6.83e-28
  2.9622e+06   6.22e-28
  3.0749e+06   5.65e-28
  3.1918e+06   5.14e-28
  3.3133e+06   4.67e-28
  3.4393e+06   4.23e-28
  3.5702e+06   3.83e-28
  3.7060e+06   3.47e-28
  3.8470e+06   3.13e-28
  3.9933e+06   2.83e-28
  4.1452e+06   2.55e-28
  4.3029e+06   2.29e-28
  4.4666e+06   2.06e-28
  4.6366e+06   1.85e-28
  4.8129e+06   1.65e-28
  4.9960e+06   1.48e-28
  5.1861e+06   1.32e-28
  5.3834e+06   1.17e-28
  5.5882e+06   1.04e-28
  5.8008e+06   9.25e-29
  6.0215e+06   8.17e-29
  6.2506e+06   7.21e-29
  6.4883e+06   6.37e-29
  6.7352e+06   5.59e-29
  6.9914e+06   4.89e-29
  7.2574e+06   4.29e-29
  7.5335e+06   3.74e-29
  7.8201e+06   3.24e-29
  8.1176e+06   2.82e-29
  8.4264e+06   2.43e-29
  8.7470e+06   2.09e-29
  9.0797e+06   1.80e-29
  9.4251e+06   1.54e-29
  9.7837e+06   1.30e-29
  1.0156e+07   1.11e-29
  1.0542e+07   9.34e-30
  1.0943e+07   7.78e-30
  1.1360e+07   6.53e-30
  1.1792e+07   5.41e-30
  1.2240e+07   4.42e-30
  1.2706e+07   3.64e-30
  1.3189e+07   2.95e-30
  1.3691e+07   2.35e-30
  1.4212e+07   1.88e-30
  1.4753e+07   1.49e-30
  1.5314e+07   1.15e-30
  1.5897e+07   8.87e-31
  1.6501e+07   6.73e-31
  1.7129e+07   4.98e-31
  1.7781e+07   3.66e-31
  1.8457e+07   2.63e-31
  1.9159e+07   1.83e-31
  1.9888e+07   1.25e-31
  2.0645e+07   8.30e-32
  2.1430e+07   5.27e-32
  2.2245e+07   3.23e-32
  2.3092e+07   1.90e-32
  2.3970e+07   1.04e-32
  2.4882e+07   5.43e-33
  2.5829e+07   2.64e-33
  2.6811e+07   1.17e-33
  2.7831e+07   4.66e-34
  2.8890e+07   1.67e-34
  2.9989e+07   5.11e-35
  3.1130e+07   1.32e-35
  3.2314e+07   2.79e-36
  3.3544e+07   4.53e-37
  3.4820e+07   5.36e-38
  3.6144e+07   4.39e-39
  3.7519e+07   2.21e-40
  3.8947e+07   6.10e-42
  4.0428e+07   8.14e-44
  4.1966e+07   4.19e-46
  4.3563e+07   6.41e-49
  4.5220e+07   2.11e-52
  4.6941e+07   9.33e-57
  4.8726e+07   2.98e-62
  5.0580e+07   3.06e-69
