#  E [GeV]   # per interaction  [GeV^{-1}]
  3.0000e+01   3.00e-02
  3.1232e+01   2.89e-02
  3.2514e+01   2.78e-02
  3.3849e+01   2.67e-02
  3.5238e+01   2.56e-02
  3.6685e+01   2.46e-02
  3.8191e+01   2.37e-02
  3.9759e+01   2.27e-02
  4.1391e+01   2.18e-02
  4.3090e+01   2.10e-02
  4.4859e+01   2.01e-02
  4.6701e+01   1.93e-02
  4.8618e+01   1.85e-02
  5.0614e+01   1.78e-02
  5.2692e+01   1.70e-02
  5.4855e+01   1.63e-02
  5.7107e+01   1.56e-02
  5.9451e+01   1.50e-02
  6.1892e+01   1.44e-02
  6.4433e+01   1.38e-02
  6.7078e+01   1.32e-02
  6.9832e+01   1.26e-02
  7.2699e+01   1.21e-02
  7.5683e+01   1.15e-02
  7.8790e+01   1.10e-02
  8.2025e+01   1.06e-02
  8.5392e+01   1.01e-02
  8.8898e+01   9.65e-03
  9.2547e+01   9.22e-03
  9.6347e+01   8.81e-03
  1.0030e+02   8.42e-03
  1.0442e+02   8.04e-03
  1.0871e+02   7.67e-03
  1.1317e+02   7.32e-03
  1.1782e+02   6.98e-03
  1.2265e+02   6.66e-03
  1.2769e+02   6.35e-03
  1.3293e+02   6.05e-03
  1.3839e+02   5.76e-03
  1.4407e+02   5.49e-03
  1.4998e+02   5.22e-03
  1.5614e+02   4.97e-03
  1.6255e+02   4.73e-03
  1.6922e+02   4.49e-03
  1.7617e+02   4.27e-03
  1.8340e+02   4.06e-03
  1.9093e+02   3.85e-03
  1.9877e+02   3.66e-03
  2.0693e+02   3.47e-03
  2.1543e+02   3.29e-03
  2.2427e+02   3.12e-03
  2.3348e+02   2.96e-03
  2.4306e+02   2.80e-03
  2.5304e+02   2.65e-03
  2.6343e+02   2.51e-03
  2.7424e+02   2.37e-03
  2.8550e+02   2.24e-03
  2.9722e+02   2.12e-03
  3.0942e+02   2.00e-03
  3.2213e+02   1.88e-03
  3.3535e+02   1.78e-03
  3.4912e+02   1.67e-03
  3.6345e+02   1.58e-03
  3.7837e+02   1.48e-03
  3.9390e+02   1.40e-03
  4.1008e+02   1.31e-03
  4.2691e+02   1.23e-03
  4.4444e+02   1.16e-03
  4.6268e+02   1.09e-03
  4.8168e+02   1.02e-03
  5.0145e+02   9.60e-04
  5.2204e+02   9.01e-04
  5.4347e+02   8.45e-04
  5.6578e+02   7.92e-04
  5.8901e+02   7.42e-04
  6.1319e+02   6.96e-04
  6.3836e+02   6.52e-04
  6.6457e+02   6.11e-04
  6.9185e+02   5.73e-04
  7.2025e+02   5.38e-04
  7.4982e+02   5.04e-04
  7.8061e+02   4.73e-04
  8.1265e+02   4.45e-04
  8.4601e+02   4.17e-04
  8.8075e+02   3.92e-04
  9.1690e+02   3.69e-04
  9.5455e+02   3.47e-04
  9.9373e+02   3.27e-04
  1.0345e+03   3.08e-04
  1.0770e+03   2.90e-04
  1.1212e+03   2.74e-04
  1.1672e+03   2.59e-04
  1.2152e+03   2.45e-04
  1.2650e+03   2.32e-04
  1.3170e+03   2.20e-04
  1.3711e+03   2.08e-04
  1.4273e+03   1.98e-04
  1.4859e+03   1.88e-04
  1.5469e+03   1.79e-04
  1.6104e+03   1.70e-04
  1.6766e+03   1.62e-04
  1.7454e+03   1.55e-04
  1.8170e+03   1.48e-04
  1.8916e+03   1.41e-04
  1.9693e+03   1.35e-04
  2.0501e+03   1.29e-04
  2.1343e+03   1.23e-04
  2.2219e+03   1.18e-04
  2.3131e+03   1.13e-04
  2.4081e+03   1.09e-04
  2.5070e+03   1.04e-04
  2.6099e+03   1.00e-04
  2.7170e+03   9.60e-05
  2.8286e+03   9.22e-05
  2.9447e+03   8.84e-05
  3.0656e+03   8.48e-05
  3.1914e+03   8.14e-05
  3.3225e+03   7.80e-05
  3.4589e+03   7.48e-05
  3.6008e+03   7.16e-05
  3.7487e+03   6.86e-05
  3.9026e+03   6.56e-05
  4.0628e+03   6.27e-05
  4.2296e+03   5.98e-05
  4.4032e+03   5.71e-05
  4.5840e+03   5.44e-05
  4.7722e+03   5.17e-05
  4.9681e+03   4.91e-05
  5.1720e+03   4.66e-05
  5.3844e+03   4.41e-05
  5.6054e+03   4.16e-05
  5.8355e+03   3.92e-05
  6.0751e+03   3.68e-05
  6.3245e+03   3.45e-05
  6.5841e+03   3.22e-05
  6.8544e+03   3.00e-05
  7.1358e+03   2.78e-05
  7.4288e+03   2.57e-05
  7.7338e+03   2.37e-05
  8.0513e+03   2.17e-05
  8.3818e+03   1.97e-05
  8.7259e+03   1.79e-05
  9.0841e+03   1.61e-05
  9.4571e+03   1.44e-05
  9.8453e+03   1.28e-05
  1.0249e+04   1.12e-05
  1.0670e+04   9.80e-06
  1.1108e+04   8.45e-06
  1.1564e+04   7.22e-06
  1.2039e+04   6.09e-06
  1.2533e+04   5.06e-06
  1.3048e+04   4.15e-06
  1.3584e+04   3.34e-06
  1.4141e+04   2.64e-06
  1.4722e+04   2.04e-06
  1.5326e+04   1.54e-06
  1.5955e+04   1.13e-06
  1.6610e+04   8.06e-07
  1.7292e+04   5.53e-07
  1.8002e+04   3.65e-07
  1.8741e+04   2.30e-07
  1.9511e+04   1.37e-07
  2.0312e+04   7.70e-08
  2.1145e+04   4.03e-08
  2.2013e+04   1.94e-08
  2.2917e+04   8.47e-09
  2.3858e+04   3.31e-09
  2.4837e+04   1.13e-09
  2.5857e+04   3.27e-10
  2.6919e+04   7.88e-11
  2.8024e+04   1.51e-11
  2.9174e+04   2.19e-12
  3.0372e+04   2.29e-13
  3.1619e+04   1.59e-14
  3.2917e+04   6.70e-16
  3.4268e+04   1.52e-17
  3.5675e+04   1.60e-19
  3.7140e+04   6.42e-22
  3.8664e+04   7.59e-25
  4.0252e+04   1.89e-28
  4.1904e+04   6.39e-33
  4.3624e+04   1.61e-38
  4.5415e+04   1.35e-45
  4.7280e+04   4.65e-46
  4.9221e+04   4.11e-46
  5.1241e+04   3.61e-46
  5.3345e+04   3.15e-46
  5.5535e+04   2.75e-46
  5.7815e+04   2.38e-46
  6.0188e+04   2.04e-46
  6.2659e+04   1.77e-46
  6.5232e+04   1.51e-46
  6.7910e+04   1.28e-46
  7.0698e+04   1.11e-46
  7.3600e+04   9.51e-47
  7.6621e+04   8.13e-47
  7.9767e+04   7.13e-47
  8.3042e+04   6.19e-47
  8.6451e+04   5.48e-47
  9.0000e+04   5.00e-47
