#  E [MeV]   Flux [# cm^{-2} s^{-1}  MeV^{-1}]
  3.0000e+04   2.02e-24
  3.0607e+04   1.97e-24
  3.1227e+04   1.91e-24
  3.1859e+04   1.86e-24
  3.2504e+04   1.81e-24
  3.3163e+04   1.76e-24
  3.3834e+04   1.71e-24
  3.4519e+04   1.66e-24
  3.5218e+04   1.61e-24
  3.5931e+04   1.57e-24
  3.6659e+04   1.53e-24
  3.7401e+04   1.48e-24
  3.8158e+04   1.44e-24
  3.8931e+04   1.40e-24
  3.9719e+04   1.36e-24
  4.0523e+04   1.33e-24
  4.1344e+04   1.29e-24
  4.2181e+04   1.25e-24
  4.3035e+04   1.22e-24
  4.3906e+04   1.18e-24
  4.4795e+04   1.15e-24
  4.5702e+04   1.12e-24
  4.6628e+04   1.09e-24
  4.7572e+04   1.06e-24
  4.8535e+04   1.03e-24
  4.9517e+04   1.00e-24
  5.0520e+04   9.72e-25
  5.1543e+04   9.46e-25
  5.2587e+04   9.20e-25
  5.3651e+04   8.94e-25
  5.4738e+04   8.69e-25
  5.5846e+04   8.46e-25
  5.6977e+04   8.23e-25
  5.8130e+04   8.00e-25
  5.9307e+04   7.78e-25
  6.0508e+04   7.57e-25
  6.1733e+04   7.36e-25
  6.2983e+04   7.16e-25
  6.4258e+04   6.97e-25
  6.5559e+04   6.78e-25
  6.6887e+04   6.59e-25
  6.8241e+04   6.41e-25
  6.9623e+04   6.24e-25
  7.1033e+04   6.07e-25
  7.2471e+04   5.91e-25
  7.3938e+04   5.75e-25
  7.5435e+04   5.59e-25
  7.6963e+04   5.44e-25
  7.8521e+04   5.29e-25
  8.0111e+04   5.15e-25
  8.1733e+04   5.01e-25
  8.3388e+04   4.88e-25
  8.5076e+04   4.74e-25
  8.6799e+04   4.61e-25
  8.8556e+04   4.49e-25
  9.0349e+04   4.37e-25
  9.2178e+04   4.26e-25
  9.4045e+04   4.14e-25
  9.5949e+04   4.03e-25
  9.7892e+04   3.93e-25
  9.9874e+04   3.82e-25
  1.0190e+05   3.72e-25
  1.0396e+05   3.62e-25
  1.0606e+05   3.53e-25
  1.0821e+05   3.43e-25
  1.1040e+05   3.34e-25
  1.1264e+05   3.26e-25
  1.1492e+05   3.17e-25
  1.1725e+05   3.09e-25
  1.1962e+05   3.01e-25
  1.2204e+05   2.93e-25
  1.2451e+05   2.85e-25
  1.2703e+05   2.78e-25
  1.2961e+05   2.71e-25
  1.3223e+05   2.64e-25
  1.3491e+05   2.57e-25
  1.3764e+05   2.50e-25
  1.4043e+05   2.44e-25
  1.4327e+05   2.37e-25
  1.4617e+05   2.31e-25
  1.4913e+05   2.25e-25
  1.5215e+05   2.19e-25
  1.5523e+05   2.14e-25
  1.5837e+05   2.08e-25
  1.6158e+05   2.03e-25
  1.6485e+05   1.98e-25
  1.6819e+05   1.93e-25
  1.7159e+05   1.88e-25
  1.7507e+05   1.83e-25
  1.7861e+05   1.78e-25
  1.8223e+05   1.73e-25
  1.8592e+05   1.69e-25
  1.8968e+05   1.65e-25
  1.9352e+05   1.60e-25
  1.9744e+05   1.56e-25
  2.0144e+05   1.52e-25
  2.0552e+05   1.48e-25
  2.0968e+05   1.44e-25
  2.1392e+05   1.40e-25
  2.1826e+05   1.37e-25
  2.2267e+05   1.33e-25
  2.2718e+05   1.29e-25
  2.3178e+05   1.26e-25
  2.3648e+05   1.23e-25
  2.4126e+05   1.19e-25
  2.4615e+05   1.16e-25
  2.5113e+05   1.13e-25
  2.5622e+05   1.10e-25
  2.6141e+05   1.07e-25
  2.6670e+05   1.04e-25
  2.7210e+05   1.01e-25
  2.7761e+05   9.87e-26
  2.8323e+05   9.61e-26
  2.8896e+05   9.35e-26
  2.9481e+05   9.10e-26
  3.0078e+05   8.85e-26
  3.0687e+05   8.61e-26
  3.1309e+05   8.37e-26
  3.1943e+05   8.14e-26
  3.2589e+05   7.92e-26
  3.3249e+05   7.70e-26
  3.3922e+05   7.48e-26
  3.4609e+05   7.28e-26
  3.5310e+05   7.07e-26
  3.6025e+05   6.87e-26
  3.6754e+05   6.67e-26
  3.7498e+05   6.48e-26
  3.8258e+05   6.30e-26
  3.9032e+05   6.11e-26
  3.9823e+05   5.94e-26
  4.0629e+05   5.76e-26
  4.1452e+05   5.59e-26
  4.2291e+05   5.43e-26
  4.3147e+05   5.27e-26
  4.4021e+05   5.11e-26
  4.4912e+05   4.96e-26
  4.5821e+05   4.81e-26
  4.6749e+05   4.67e-26
  4.7696e+05   4.52e-26
  4.8661e+05   4.39e-26
  4.9647e+05   4.25e-26
  5.0652e+05   4.12e-26
  5.1678e+05   3.99e-26
  5.2724e+05   3.87e-26
  5.3791e+05   3.74e-26
  5.4881e+05   3.63e-26
  5.5992e+05   3.51e-26
  5.7125e+05   3.40e-26
  5.8282e+05   3.30e-26
  5.9462e+05   3.19e-26
  6.0666e+05   3.09e-26
  6.1894e+05   2.99e-26
  6.3148e+05   2.90e-26
  6.4426e+05   2.80e-26
  6.5731e+05   2.71e-26
  6.7061e+05   2.62e-26
  6.8419e+05   2.53e-26
  6.9805e+05   2.45e-26
  7.1218e+05   2.36e-26
  7.2660e+05   2.29e-26
  7.4131e+05   2.21e-26
  7.5632e+05   2.13e-26
  7.7163e+05   2.06e-26
  7.8726e+05   1.99e-26
  8.0320e+05   1.92e-26
  8.1946e+05   1.86e-26
  8.3605e+05   1.79e-26
  8.5298e+05   1.73e-26
  8.7025e+05   1.67e-26
  8.8787e+05   1.61e-26
  9.0585e+05   1.56e-26
  9.2419e+05   1.50e-26
  9.4290e+05   1.45e-26
  9.6199e+05   1.40e-26
  9.8147e+05   1.35e-26
  1.0013e+06   1.31e-26
  1.0216e+06   1.26e-26
  1.0423e+06   1.22e-26
  1.0634e+06   1.17e-26
  1.0849e+06   1.13e-26
  1.1069e+06   1.09e-26
  1.1293e+06   1.06e-26
  1.1522e+06   1.02e-26
  1.1755e+06   9.83e-27
  1.1993e+06   9.48e-27
  1.2236e+06   9.15e-27
  1.2484e+06   8.82e-27
  1.2736e+06   8.51e-27
  1.2994e+06   8.20e-27
  1.3257e+06   7.90e-27
  1.3526e+06   7.62e-27
  1.3800e+06   7.34e-27
  1.4079e+06   7.08e-27
  1.4364e+06   6.82e-27
  1.4655e+06   6.57e-27
  1.4952e+06   6.33e-27
  1.5255e+06   6.10e-27
  1.5563e+06   5.88e-27
  1.5879e+06   5.69e-27
  1.6200e+06   5.51e-27
