#  E [MeV]   Flux [# cm^{-2} s^{-1}  MeV^{-1}]
  3.0000e+04   3.28e-19
  3.1123e+04   3.14e-19
  3.2288e+04   3.00e-19
  3.3497e+04   2.87e-19
  3.4751e+04   2.74e-19
  3.6051e+04   2.62e-19
  3.7401e+04   2.50e-19
  3.8801e+04   2.39e-19
  4.0253e+04   2.28e-19
  4.1760e+04   2.18e-19
  4.3324e+04   2.08e-19
  4.4945e+04   1.98e-19
  4.6628e+04   1.89e-19
  4.8373e+04   1.81e-19
  5.0184e+04   1.72e-19
  5.2063e+04   1.64e-19
  5.4011e+04   1.57e-19
  5.6033e+04   1.49e-19
  5.8131e+04   1.43e-19
  6.0307e+04   1.36e-19
  6.2564e+04   1.30e-19
  6.4906e+04   1.23e-19
  6.7336e+04   1.18e-19
  6.9857e+04   1.12e-19
  7.2472e+04   1.07e-19
  7.5184e+04   1.02e-19
  7.7999e+04   9.69e-20
  8.0919e+04   9.23e-20
  8.3948e+04   8.79e-20
  8.7090e+04   8.37e-20
  9.0350e+04   7.97e-20
  9.3732e+04   7.58e-20
  9.7241e+04   7.22e-20
  1.0088e+05   6.87e-20
  1.0466e+05   6.54e-20
  1.0858e+05   6.22e-20
  1.1264e+05   5.91e-20
  1.1686e+05   5.63e-20
  1.2123e+05   5.35e-20
  1.2577e+05   5.09e-20
  1.3048e+05   4.84e-20
  1.3536e+05   4.60e-20
  1.4043e+05   4.37e-20
  1.4568e+05   4.15e-20
  1.5114e+05   3.95e-20
  1.5680e+05   3.75e-20
  1.6266e+05   3.56e-20
  1.6875e+05   3.38e-20
  1.7507e+05   3.21e-20
  1.8162e+05   3.05e-20
  1.8842e+05   2.90e-20
  1.9548e+05   2.75e-20
  2.0279e+05   2.61e-20
  2.1039e+05   2.47e-20
  2.1826e+05   2.35e-20
  2.2643e+05   2.23e-20
  2.3491e+05   2.11e-20
  2.4370e+05   2.00e-20
  2.5282e+05   1.90e-20
  2.6229e+05   1.80e-20
  2.7211e+05   1.70e-20
  2.8229e+05   1.61e-20
  2.9286e+05   1.53e-20
  3.0382e+05   1.45e-20
  3.1519e+05   1.37e-20
  3.2699e+05   1.30e-20
  3.3923e+05   1.23e-20
  3.5193e+05   1.16e-20
  3.6511e+05   1.10e-20
  3.7877e+05   1.04e-20
  3.9295e+05   9.78e-21
  4.0766e+05   9.23e-21
  4.2292e+05   8.71e-21
  4.3875e+05   8.22e-21
  4.5518e+05   7.75e-21
  4.7222e+05   7.30e-21
  4.8989e+05   6.87e-21
  5.0823e+05   6.47e-21
  5.2726e+05   6.09e-21
  5.4699e+05   5.72e-21
  5.6747e+05   5.38e-21
  5.8871e+05   5.05e-21
  6.1075e+05   4.73e-21
  6.3361e+05   4.44e-21
  6.5733e+05   4.16e-21
  6.8194e+05   3.90e-21
  7.0746e+05   3.65e-21
  7.3395e+05   3.42e-21
  7.6142e+05   3.20e-21
  7.8992e+05   3.00e-21
  8.1949e+05   2.81e-21
  8.5017e+05   2.63e-21
  8.8199e+05   2.46e-21
  9.1501e+05   2.30e-21
  9.4926e+05   2.15e-21
  9.8479e+05   2.01e-21
  1.0217e+06   1.87e-21
  1.0599e+06   1.75e-21
  1.0996e+06   1.63e-21
  1.1407e+06   1.52e-21
  1.1834e+06   1.42e-21
  1.2277e+06   1.32e-21
  1.2737e+06   1.23e-21
  1.3214e+06   1.14e-21
  1.3708e+06   1.06e-21
  1.4222e+06   9.83e-22
  1.4754e+06   9.13e-22
  1.5306e+06   8.46e-22
  1.5879e+06   7.84e-22
  1.6474e+06   7.27e-22
  1.7090e+06   6.72e-22
  1.7730e+06   6.21e-22
  1.8394e+06   5.74e-22
  1.9082e+06   5.30e-22
  1.9797e+06   4.89e-22
  2.0538e+06   4.51e-22
  2.1306e+06   4.15e-22
  2.2104e+06   3.82e-22
  2.2931e+06   3.51e-22
  2.3790e+06   3.22e-22
  2.4680e+06   2.95e-22
  2.5604e+06   2.70e-22
  2.6563e+06   2.48e-22
  2.7557e+06   2.26e-22
  2.8589e+06   2.06e-22
  2.9659e+06   1.88e-22
  3.0769e+06   1.71e-22
  3.1921e+06   1.56e-22
  3.3116e+06   1.42e-22
  3.4355e+06   1.28e-22
  3.5641e+06   1.16e-22
  3.6976e+06   1.05e-22
  3.8360e+06   9.51e-23
  3.9796e+06   8.57e-23
  4.1285e+06   7.74e-23
  4.2831e+06   6.96e-23
  4.4434e+06   6.23e-23
  4.6097e+06   5.60e-23
  4.7823e+06   5.01e-23
  4.9613e+06   4.46e-23
  5.1470e+06   3.99e-23
  5.3397e+06   3.55e-23
  5.5396e+06   3.14e-23
  5.7470e+06   2.79e-23
  5.9621e+06   2.48e-23
  6.1853e+06   2.18e-23
  6.4168e+06   1.93e-23
  6.6570e+06   1.70e-23
  6.9062e+06   1.49e-23
  7.1647e+06   1.31e-23
  7.4329e+06   1.15e-23
  7.7112e+06   1.00e-23
  7.9998e+06   8.70e-24
  8.2993e+06   7.61e-24
  8.6100e+06   6.60e-24
  8.9323e+06   5.69e-24
  9.2666e+06   4.95e-24
  9.6135e+06   4.26e-24
  9.9734e+06   3.63e-24
  1.0347e+07   3.15e-24
  1.0734e+07   2.69e-24
  1.1136e+07   2.28e-24
  1.1553e+07   1.96e-24
  1.1985e+07   1.67e-24
  1.2434e+07   1.40e-24
  1.2899e+07   1.19e-24
  1.3382e+07   1.01e-24
  1.3883e+07   8.43e-25
  1.4403e+07   7.11e-25
  1.4942e+07   5.99e-25
  1.5501e+07   4.96e-25
  1.6081e+07   4.13e-25
  1.6683e+07   3.46e-25
  1.7308e+07   2.85e-25
  1.7956e+07   2.34e-25
  1.8628e+07   1.94e-25
  1.9325e+07   1.59e-25
  2.0049e+07   1.29e-25
  2.0799e+07   1.06e-25
  2.1578e+07   8.57e-26
  2.2386e+07   6.83e-26
  2.3224e+07   5.56e-26
  2.4093e+07   4.43e-26
  2.4995e+07   3.46e-26
  2.5930e+07   2.74e-26
  2.6901e+07   2.12e-26
  2.7908e+07   1.59e-26
  2.8953e+07   1.20e-26
  3.0037e+07   8.76e-27
  3.1161e+07   6.16e-27
  3.2327e+07   4.21e-27
  3.3537e+07   2.74e-27
  3.4793e+07   1.68e-27
  3.6095e+07   9.55e-28
  3.7446e+07   4.97e-28
  3.8848e+07   2.30e-28
  4.0302e+07   9.24e-29
  4.1811e+07   3.10e-29
  4.3376e+07   8.27e-30
  4.5000e+07   1.67e-30
