#  E [MeV]   Flux [# cm^{-2} s^{-1}  MeV^{-1}]
  3.0000e+04   1.53e-19
  3.0411e+04   1.49e-19
  3.0828e+04   1.44e-19
  3.1250e+04   1.39e-19
  3.1678e+04   1.35e-19
  3.2112e+04   1.30e-19
  3.2552e+04   1.26e-19
  3.2998e+04   1.21e-19
  3.3450e+04   1.17e-19
  3.3909e+04   1.14e-19
  3.4373e+04   1.10e-19
  3.4844e+04   1.06e-19
  3.5322e+04   1.02e-19
  3.5806e+04   9.89e-20
  3.6296e+04   9.54e-20
  3.6794e+04   9.20e-20
  3.7298e+04   8.88e-20
  3.7809e+04   8.58e-20
  3.8327e+04   8.28e-20
  3.8852e+04   7.99e-20
  3.9384e+04   7.70e-20
  3.9924e+04   7.43e-20
  4.0471e+04   7.15e-20
  4.1025e+04   6.89e-20
  4.1587e+04   6.63e-20
  4.2157e+04   6.39e-20
  4.2735e+04   6.16e-20
  4.3320e+04   5.93e-20
  4.3914e+04   5.71e-20
  4.4516e+04   5.49e-20
  4.5125e+04   5.28e-20
  4.5744e+04   5.07e-20
  4.6370e+04   4.87e-20
  4.7006e+04   4.68e-20
  4.7650e+04   4.50e-20
  4.8303e+04   4.33e-20
  4.8965e+04   4.16e-20
  4.9635e+04   4.00e-20
  5.0315e+04   3.84e-20
  5.1005e+04   3.68e-20
  5.1704e+04   3.52e-20
  5.2412e+04   3.38e-20
  5.3130e+04   3.24e-20
  5.3858e+04   3.11e-20
  5.4596e+04   2.99e-20
  5.5344e+04   2.87e-20
  5.6102e+04   2.75e-20
  5.6871e+04   2.63e-20
  5.7650e+04   2.51e-20
  5.8440e+04   2.40e-20
  5.9241e+04   2.30e-20
  6.0053e+04   2.20e-20
  6.0875e+04   2.11e-20
  6.1709e+04   2.02e-20
  6.2555e+04   1.93e-20
  6.3412e+04   1.85e-20
  6.4281e+04   1.76e-20
  6.5162e+04   1.68e-20
  6.6054e+04   1.60e-20
  6.6959e+04   1.53e-20
  6.7877e+04   1.47e-20
  6.8807e+04   1.40e-20
  6.9750e+04   1.34e-20
  7.0705e+04   1.28e-20
  7.1674e+04   1.22e-20
  7.2656e+04   1.16e-20
  7.3652e+04   1.10e-20
  7.4661e+04   1.05e-20
  7.5684e+04   1.00e-20
  7.6721e+04   9.57e-21
  7.7772e+04   9.12e-21
  7.8837e+04   8.68e-21
  7.9917e+04   8.25e-21
  8.1012e+04   7.84e-21
  8.2122e+04   7.43e-21
  8.3248e+04   7.05e-21
  8.4388e+04   6.72e-21
  8.5544e+04   6.40e-21
  8.6717e+04   6.09e-21
  8.7905e+04   5.79e-21
  8.9109e+04   5.49e-21
  9.0330e+04   5.20e-21
  9.1568e+04   4.92e-21
  9.2822e+04   4.64e-21
  9.4094e+04   4.41e-21
  9.5383e+04   4.20e-21
  9.6690e+04   3.99e-21
  9.8015e+04   3.78e-21
  9.9358e+04   3.58e-21
  1.0072e+05   3.39e-21
  1.0210e+05   3.20e-21
  1.0350e+05   3.01e-21
  1.0492e+05   2.84e-21
  1.0635e+05   2.70e-21
  1.0781e+05   2.56e-21
  1.0929e+05   2.43e-21
  1.1079e+05   2.29e-21
  1.1230e+05   2.17e-21
  1.1384e+05   2.04e-21
  1.1540e+05   1.92e-21
  1.1698e+05   1.80e-21
  1.1859e+05   1.70e-21
  1.2021e+05   1.61e-21
  1.2186e+05   1.53e-21
  1.2353e+05   1.44e-21
  1.2522e+05   1.36e-21
  1.2694e+05   1.28e-21
  1.2867e+05   1.20e-21
  1.3044e+05   1.12e-21
  1.3222e+05   1.05e-21
  1.3404e+05   9.94e-22
  1.3587e+05   9.39e-22
  1.3773e+05   8.86e-22
  1.3962e+05   8.33e-22
  1.4153e+05   7.82e-22
  1.4347e+05   7.32e-22
  1.4544e+05   6.84e-22
  1.4743e+05   6.36e-22
  1.4945e+05   6.00e-22
  1.5150e+05   5.66e-22
  1.5358e+05   5.33e-22
  1.5568e+05   5.01e-22
  1.5781e+05   4.69e-22
  1.5997e+05   4.38e-22
  1.6217e+05   4.08e-22
  1.6439e+05   3.79e-22
  1.6664e+05   3.54e-22
  1.6892e+05   3.34e-22
  1.7124e+05   3.13e-22
  1.7358e+05   2.94e-22
  1.7596e+05   2.75e-22
  1.7837e+05   2.56e-22
  1.8082e+05   2.38e-22
  1.8330e+05   2.20e-22
  1.8581e+05   2.03e-22
  1.8835e+05   1.91e-22
  1.9093e+05   1.80e-22
  1.9355e+05   1.68e-22
  1.9620e+05   1.57e-22
  1.9889e+05   1.47e-22
  2.0161e+05   1.36e-22
  2.0438e+05   1.26e-22
  2.0718e+05   1.16e-22
  2.1002e+05   1.08e-22
  2.1289e+05   1.01e-22
  2.1581e+05   9.50e-23
  2.1877e+05   8.88e-23
  2.2176e+05   8.28e-23
  2.2480e+05   7.69e-23
  2.2788e+05   7.12e-23
  2.3101e+05   6.57e-23
  2.3417e+05   6.04e-23
  2.3738e+05   5.68e-23
  2.4063e+05   5.33e-23
  2.4393e+05   4.99e-23
  2.4727e+05   4.66e-23
  2.5066e+05   4.34e-23
  2.5409e+05   4.03e-23
  2.5757e+05   3.72e-23
  2.6110e+05   3.43e-23
  2.6468e+05   3.20e-23
  2.6831e+05   3.01e-23
  2.7198e+05   2.83e-23
  2.7571e+05   2.66e-23
  2.7949e+05   2.49e-23
  2.8332e+05   2.32e-23
  2.8720e+05   2.16e-23
  2.9113e+05   2.00e-23
  2.9512e+05   1.86e-23
  2.9917e+05   1.76e-23
  3.0327e+05   1.66e-23
  3.0742e+05   1.57e-23
  3.1163e+05   1.48e-23
  3.1590e+05   1.39e-23
  3.2023e+05   1.31e-23
  3.2462e+05   1.23e-23
  3.2907e+05   1.15e-23
  3.3357e+05   1.08e-23
  3.3814e+05   1.03e-23
  3.4278e+05   9.81e-24
  3.4747e+05   9.32e-24
  3.5223e+05   8.84e-24
  3.5706e+05   8.37e-24
  3.6195e+05   7.92e-24
  3.6691e+05   7.48e-24
  3.7194e+05   7.07e-24
  3.7704e+05   6.73e-24
  3.8220e+05   6.40e-24
  3.8744e+05   6.08e-24
  3.9275e+05   5.77e-24
  3.9813e+05   5.47e-24
  4.0358e+05   5.18e-24
  4.0911e+05   4.89e-24
  4.1472e+05   4.62e-24
  4.2040e+05   4.41e-24
  4.2616e+05   4.24e-24
  4.3200e+05   4.06e-24
  4.3792e+05   3.89e-24
  4.4392e+05   3.73e-24
  4.5000e+05   3.57e-24
