#  E [MeV]   Flux [# cm^{-2} s^{-1}  MeV^{-1}]
  3.0000e+04   5.10e-19
  3.0765e+04   4.91e-19
  3.1549e+04   4.73e-19
  3.2354e+04   4.55e-19
  3.3179e+04   4.38e-19
  3.4025e+04   4.22e-19
  3.4892e+04   4.06e-19
  3.5782e+04   3.91e-19
  3.6695e+04   3.76e-19
  3.7630e+04   3.62e-19
  3.8590e+04   3.48e-19
  3.9574e+04   3.34e-19
  4.0583e+04   3.21e-19
  4.1618e+04   3.09e-19
  4.2679e+04   2.97e-19
  4.3767e+04   2.85e-19
  4.4883e+04   2.74e-19
  4.6028e+04   2.63e-19
  4.7201e+04   2.52e-19
  4.8405e+04   2.42e-19
  4.9639e+04   2.33e-19
  5.0905e+04   2.23e-19
  5.2203e+04   2.14e-19
  5.3534e+04   2.05e-19
  5.4899e+04   1.97e-19
  5.6299e+04   1.89e-19
  5.7734e+04   1.81e-19
  5.9207e+04   1.73e-19
  6.0716e+04   1.66e-19
  6.2264e+04   1.59e-19
  6.3852e+04   1.53e-19
  6.5480e+04   1.46e-19
  6.7150e+04   1.40e-19
  6.8862e+04   1.34e-19
  7.0618e+04   1.28e-19
  7.2419e+04   1.23e-19
  7.4265e+04   1.17e-19
  7.6159e+04   1.12e-19
  7.8101e+04   1.07e-19
  8.0092e+04   1.02e-19
  8.2135e+04   9.79e-20
  8.4229e+04   9.35e-20
  8.6377e+04   8.93e-20
  8.8579e+04   8.53e-20
  9.0838e+04   8.14e-20
  9.3154e+04   7.77e-20
  9.5529e+04   7.41e-20
  9.7965e+04   7.07e-20
  1.0046e+05   6.74e-20
  1.0303e+05   6.42e-20
  1.0565e+05   6.12e-20
  1.0835e+05   5.83e-20
  1.1111e+05   5.55e-20
  1.1394e+05   5.28e-20
  1.1685e+05   5.03e-20
  1.1983e+05   4.78e-20
  1.2288e+05   4.54e-20
  1.2602e+05   4.32e-20
  1.2923e+05   4.10e-20
  1.3252e+05   3.89e-20
  1.3590e+05   3.69e-20
  1.3937e+05   3.51e-20
  1.4292e+05   3.33e-20
  1.4657e+05   3.16e-20
  1.5030e+05   2.99e-20
  1.5414e+05   2.83e-20
  1.5807e+05   2.68e-20
  1.6210e+05   2.54e-20
  1.6623e+05   2.40e-20
  1.7047e+05   2.27e-20
  1.7482e+05   2.15e-20
  1.7927e+05   2.03e-20
  1.8384e+05   1.92e-20
  1.8853e+05   1.81e-20
  1.9334e+05   1.71e-20
  1.9827e+05   1.61e-20
  2.0333e+05   1.52e-20
  2.0851e+05   1.44e-20
  2.1383e+05   1.35e-20
  2.1928e+05   1.27e-20
  2.2487e+05   1.20e-20
  2.3060e+05   1.13e-20
  2.3648e+05   1.06e-20
  2.4251e+05   9.93e-21
  2.4870e+05   9.32e-21
  2.5504e+05   8.75e-21
  2.6154e+05   8.21e-21
  2.6821e+05   7.68e-21
  2.7505e+05   7.18e-21
  2.8206e+05   6.74e-21
  2.8926e+05   6.31e-21
  2.9663e+05   5.90e-21
  3.0420e+05   5.50e-21
  3.1195e+05   5.14e-21
  3.1991e+05   4.80e-21
  3.2806e+05   4.48e-21
  3.3643e+05   4.17e-21
  3.4501e+05   3.88e-21
  3.5381e+05   3.62e-21
  3.6283e+05   3.37e-21
  3.7208e+05   3.14e-21
  3.8157e+05   2.91e-21
  3.9130e+05   2.70e-21
  4.0127e+05   2.51e-21
  4.1150e+05   2.33e-21
  4.2200e+05   2.16e-21
  4.3276e+05   1.99e-21
  4.4379e+05   1.85e-21
  4.5511e+05   1.71e-21
  4.6671e+05   1.58e-21
  4.7861e+05   1.46e-21
  4.9082e+05   1.34e-21
  5.0333e+05   1.24e-21
  5.1617e+05   1.15e-21
  5.2933e+05   1.05e-21
  5.4283e+05   9.67e-22
  5.5667e+05   8.90e-22
  5.7086e+05   8.20e-22
  5.8542e+05   7.54e-22
  6.0035e+05   6.91e-22
  6.1565e+05   6.31e-22
  6.3135e+05   5.81e-22
  6.4745e+05   5.33e-22
  6.6396e+05   4.88e-22
  6.8089e+05   4.45e-22
  6.9825e+05   4.07e-22
  7.1606e+05   3.73e-22
  7.3432e+05   3.41e-22
  7.5304e+05   3.11e-22
  7.7224e+05   2.82e-22
  7.9193e+05   2.58e-22
  8.1213e+05   2.36e-22
  8.3283e+05   2.15e-22
  8.5407e+05   1.95e-22
  8.7585e+05   1.76e-22
  8.9818e+05   1.61e-22
  9.2108e+05   1.47e-22
  9.4457e+05   1.33e-22
  9.6866e+05   1.20e-22
  9.9336e+05   1.09e-22
  1.0187e+06   9.91e-23
  1.0447e+06   8.99e-23
  1.0713e+06   8.11e-23
  1.0986e+06   7.29e-23
  1.1266e+06   6.65e-23
  1.1554e+06   6.03e-23
  1.1848e+06   5.45e-23
  1.2150e+06   4.90e-23
  1.2460e+06   4.43e-23
  1.2778e+06   4.03e-23
  1.3104e+06   3.65e-23
  1.3438e+06   3.28e-23
  1.3780e+06   2.94e-23
  1.4132e+06   2.68e-23
  1.4492e+06   2.43e-23
  1.4862e+06   2.20e-23
  1.5241e+06   1.97e-23
  1.5629e+06   1.78e-23
  1.6028e+06   1.62e-23
  1.6436e+06   1.47e-23
  1.6856e+06   1.33e-23
  1.7285e+06   1.19e-23
  1.7726e+06   1.09e-23
  1.8178e+06   9.95e-24
  1.8642e+06   9.06e-24
  1.9117e+06   8.20e-24
  1.9604e+06   7.44e-24
  2.0104e+06   6.84e-24
  2.0617e+06   6.26e-24
  2.1143e+06   5.72e-24
  2.1682e+06   5.19e-24
  2.2235e+06   4.77e-24
  2.2802e+06   4.41e-24
  2.3383e+06   4.06e-24
  2.3979e+06   3.73e-24
  2.4591e+06   3.42e-24
  2.5218e+06   3.17e-24
  2.5861e+06   2.94e-24
  2.6520e+06   2.72e-24
  2.7196e+06   2.51e-24
  2.7890e+06   2.33e-24
  2.8601e+06   2.17e-24
  2.9330e+06   2.02e-24
  3.0078e+06   1.88e-24
  3.0845e+06   1.74e-24
  3.1632e+06   1.63e-24
  3.2438e+06   1.52e-24
  3.3265e+06   1.42e-24
  3.4113e+06   1.32e-24
  3.4983e+06   1.23e-24
  3.5875e+06   1.15e-24
  3.6790e+06   1.07e-24
  3.7728e+06   9.93e-25
  3.8690e+06   9.20e-25
  3.9677e+06   8.53e-25
  4.0689e+06   7.89e-25
  4.1726e+06   7.28e-25
  4.2790e+06   6.69e-25
  4.3881e+06   6.17e-25
  4.5000e+06   5.78e-25
