#  E [GeV]   # per interaction  [GeV^{-1}]
  3.0000e+01   4.02e-01
  3.0943e+01   3.89e-01
  3.1916e+01   3.76e-01
  3.2920e+01   3.63e-01
  3.3955e+01   3.51e-01
  3.5023e+01   3.39e-01
  3.6124e+01   3.27e-01
  3.7260e+01   3.16e-01
  3.8432e+01   3.05e-01
  3.9640e+01   2.94e-01
  4.0887e+01   2.84e-01
  4.2172e+01   2.74e-01
  4.3499e+01   2.65e-01
  4.4866e+01   2.55e-01
  4.6277e+01   2.46e-01
  4.7732e+01   2.37e-01
  4.9233e+01   2.29e-01
  5.0781e+01   2.20e-01
  5.2378e+01   2.12e-01
  5.4025e+01   2.04e-01
  5.5724e+01   1.97e-01
  5.7476e+01   1.90e-01
  5.9284e+01   1.82e-01
  6.1148e+01   1.76e-01
  6.3071e+01   1.69e-01
  6.5054e+01   1.62e-01
  6.7100e+01   1.56e-01
  6.9210e+01   1.50e-01
  7.1386e+01   1.44e-01
  7.3631e+01   1.39e-01
  7.5946e+01   1.33e-01
  7.8334e+01   1.28e-01
  8.0797e+01   1.23e-01
  8.3338e+01   1.18e-01
  8.5959e+01   1.13e-01
  8.8662e+01   1.09e-01
  9.1450e+01   1.04e-01
  9.4325e+01   9.98e-02
  9.7291e+01   9.56e-02
  1.0035e+02   9.15e-02
  1.0351e+02   8.77e-02
  1.0676e+02   8.39e-02
  1.1012e+02   8.03e-02
  1.1358e+02   7.68e-02
  1.1715e+02   7.35e-02
  1.2084e+02   7.02e-02
  1.2464e+02   6.71e-02
  1.2856e+02   6.41e-02
  1.3260e+02   6.12e-02
  1.3677e+02   5.84e-02
  1.4107e+02   5.58e-02
  1.4550e+02   5.32e-02
  1.5008e+02   5.07e-02
  1.5480e+02   4.83e-02
  1.5967e+02   4.60e-02
  1.6469e+02   4.39e-02
  1.6987e+02   4.17e-02
  1.7521e+02   3.97e-02
  1.8072e+02   3.78e-02
  1.8640e+02   3.59e-02
  1.9226e+02   3.41e-02
  1.9831e+02   3.24e-02
  2.0454e+02   3.07e-02
  2.1097e+02   2.92e-02
  2.1761e+02   2.77e-02
  2.2445e+02   2.62e-02
  2.3151e+02   2.48e-02
  2.3879e+02   2.35e-02
  2.4630e+02   2.23e-02
  2.5404e+02   2.10e-02
  2.6203e+02   1.99e-02
  2.7027e+02   1.88e-02
  2.7877e+02   1.78e-02
  2.8753e+02   1.68e-02
  2.9657e+02   1.58e-02
  3.0590e+02   1.49e-02
  3.1552e+02   1.40e-02
  3.2544e+02   1.32e-02
  3.3567e+02   1.24e-02
  3.4623e+02   1.17e-02
  3.5712e+02   1.10e-02
  3.6835e+02   1.03e-02
  3.7993e+02   9.66e-03
  3.9188e+02   9.05e-03
  4.0420e+02   8.48e-03
  4.1691e+02   7.94e-03
  4.3002e+02   7.42e-03
  4.4354e+02   6.94e-03
  4.5749e+02   6.48e-03
  4.7187e+02   6.05e-03
  4.8671e+02   5.64e-03
  5.0202e+02   5.26e-03
  5.1780e+02   4.90e-03
  5.3409e+02   4.56e-03
  5.5088e+02   4.25e-03
  5.6820e+02   3.95e-03
  5.8607e+02   3.67e-03
  6.0450e+02   3.40e-03
  6.2351e+02   3.16e-03
  6.4311e+02   2.93e-03
  6.6334e+02   2.72e-03
  6.8419e+02   2.52e-03
  7.0571e+02   2.33e-03
  7.2790e+02   2.16e-03
  7.5079e+02   1.99e-03
  7.7440e+02   1.84e-03
  7.9875e+02   1.70e-03
  8.2387e+02   1.57e-03
  8.4977e+02   1.45e-03
  8.7649e+02   1.34e-03
  9.0405e+02   1.23e-03
  9.3248e+02   1.14e-03
  9.6180e+02   1.05e-03
  9.9205e+02   9.64e-04
  1.0232e+03   8.88e-04
  1.0554e+03   8.16e-04
  1.0886e+03   7.51e-04
  1.1228e+03   6.91e-04
  1.1581e+03   6.35e-04
  1.1946e+03   5.82e-04
  1.2321e+03   5.36e-04
  1.2709e+03   4.92e-04
  1.3108e+03   4.52e-04
  1.3521e+03   4.14e-04
  1.3946e+03   3.80e-04
  1.4384e+03   3.48e-04
  1.4837e+03   3.19e-04
  1.5303e+03   2.92e-04
  1.5784e+03   2.67e-04
  1.6281e+03   2.44e-04
  1.6793e+03   2.23e-04
  1.7321e+03   2.04e-04
  1.7865e+03   1.87e-04
  1.8427e+03   1.70e-04
  1.9006e+03   1.55e-04
  1.9604e+03   1.42e-04
  2.0221e+03   1.29e-04
  2.0856e+03   1.17e-04
  2.1512e+03   1.07e-04
  2.2189e+03   9.72e-05
  2.2886e+03   8.83e-05
  2.3606e+03   7.99e-05
  2.4348e+03   7.25e-05
  2.5114e+03   6.58e-05
  2.5904e+03   5.95e-05
  2.6718e+03   5.36e-05
  2.7558e+03   4.85e-05
  2.8425e+03   4.38e-05
  2.9319e+03   3.93e-05
  3.0241e+03   3.52e-05
  3.1192e+03   3.18e-05
  3.2173e+03   2.85e-05
  3.3184e+03   2.54e-05
  3.4228e+03   2.27e-05
  3.5304e+03   2.03e-05
  3.6414e+03   1.81e-05
  3.7559e+03   1.60e-05
  3.8740e+03   1.42e-05
  3.9958e+03   1.26e-05
  4.1215e+03   1.11e-05
  4.2511e+03   9.76e-06
  4.3848e+03   8.66e-06
  4.5227e+03   7.62e-06
  4.6649e+03   6.66e-06
  4.8116e+03   5.80e-06
  4.9629e+03   5.09e-06
  5.1189e+03   4.44e-06
  5.2799e+03   3.82e-06
  5.4459e+03   3.31e-06
  5.6171e+03   2.88e-06
  5.7938e+03   2.47e-06
  5.9760e+03   2.09e-06
  6.1639e+03   1.81e-06
  6.3577e+03   1.54e-06
  6.5576e+03   1.30e-06
  6.7638e+03   1.09e-06
  6.9765e+03   9.33e-07
  7.1959e+03   7.86e-07
  7.4222e+03   6.53e-07
  7.6556e+03   5.43e-07
  7.8963e+03   4.56e-07
  8.1446e+03   3.78e-07
  8.4007e+03   3.07e-07
  8.6649e+03   2.53e-07
  8.9373e+03   2.09e-07
  9.2184e+03   1.69e-07
  9.5082e+03   1.34e-07
  9.8072e+03   1.09e-07
  1.0116e+04   8.77e-08
  1.0434e+04   6.89e-08
  1.0762e+04   5.36e-08
  1.1100e+04   4.23e-08
  1.1449e+04   3.27e-08
  1.1809e+04   2.45e-08
  1.2181e+04   1.84e-08
  1.2564e+04   1.37e-08
  1.2959e+04   9.80e-09
  1.3366e+04   6.69e-09
  1.3786e+04   4.69e-09
  1.4220e+04   3.19e-09
