#  E [MeV]   Flux [# cm^{-2} s^{-1}  MeV^{-1}]
  3.0000e+04   1.70e-19
  3.0765e+04   1.63e-19
  3.1549e+04   1.57e-19
  3.2354e+04   1.52e-19
  3.3179e+04   1.46e-19
  3.4025e+04   1.40e-19
  3.4892e+04   1.35e-19
  3.5782e+04   1.30e-19
  3.6695e+04   1.25e-19
  3.7630e+04   1.20e-19
  3.8590e+04   1.16e-19
  3.9574e+04   1.11e-19
  4.0583e+04   1.07e-19
  4.1618e+04   1.03e-19
  4.2679e+04   9.87e-20
  4.3767e+04   9.48e-20
  4.4883e+04   9.11e-20
  4.6028e+04   8.75e-20
  4.7201e+04   8.40e-20
  4.8405e+04   8.06e-20
  4.9639e+04   7.73e-20
  5.0905e+04   7.42e-20
  5.2203e+04   7.12e-20
  5.3534e+04   6.83e-20
  5.4899e+04   6.55e-20
  5.6299e+04   6.28e-20
  5.7734e+04   6.02e-20
  5.9207e+04   5.76e-20
  6.0716e+04   5.52e-20
  6.2264e+04   5.29e-20
  6.3852e+04   5.07e-20
  6.5480e+04   4.85e-20
  6.7150e+04   4.65e-20
  6.8862e+04   4.45e-20
  7.0618e+04   4.25e-20
  7.2419e+04   4.07e-20
  7.4265e+04   3.89e-20
  7.6159e+04   3.72e-20
  7.8101e+04   3.56e-20
  8.0092e+04   3.40e-20
  8.2135e+04   3.25e-20
  8.4229e+04   3.10e-20
  8.6377e+04   2.96e-20
  8.8579e+04   2.83e-20
  9.0838e+04   2.70e-20
  9.3154e+04   2.58e-20
  9.5529e+04   2.46e-20
  9.7965e+04   2.34e-20
  1.0046e+05   2.23e-20
  1.0303e+05   2.13e-20
  1.0565e+05   2.03e-20
  1.0835e+05   1.93e-20
  1.1111e+05   1.84e-20
  1.1394e+05   1.75e-20
  1.1685e+05   1.66e-20
  1.1983e+05   1.58e-20
  1.2288e+05   1.50e-20
  1.2602e+05   1.43e-20
  1.2923e+05   1.36e-20
  1.3252e+05   1.29e-20
  1.3590e+05   1.22e-20
  1.3937e+05   1.16e-20
  1.4292e+05   1.10e-20
  1.4657e+05   1.04e-20
  1.5030e+05   9.88e-21
  1.5414e+05   9.35e-21
  1.5807e+05   8.86e-21
  1.6210e+05   8.39e-21
  1.6623e+05   7.93e-21
  1.7047e+05   7.49e-21
  1.7482e+05   7.08e-21
  1.7927e+05   6.70e-21
  1.8384e+05   6.33e-21
  1.8853e+05   5.97e-21
  1.9334e+05   5.62e-21
  1.9827e+05   5.31e-21
  2.0333e+05   5.01e-21
  2.0851e+05   4.72e-21
  2.1383e+05   4.44e-21
  2.1928e+05   4.18e-21
  2.2487e+05   3.93e-21
  2.3060e+05   3.69e-21
  2.3648e+05   3.47e-21
  2.4251e+05   3.25e-21
  2.4870e+05   3.05e-21
  2.5504e+05   2.86e-21
  2.6154e+05   2.68e-21
  2.6821e+05   2.51e-21
  2.7505e+05   2.35e-21
  2.8206e+05   2.20e-21
  2.8926e+05   2.06e-21
  2.9663e+05   1.92e-21
  3.0420e+05   1.79e-21
  3.1195e+05   1.67e-21
  3.1991e+05   1.56e-21
  3.2806e+05   1.45e-21
  3.3643e+05   1.35e-21
  3.4501e+05   1.26e-21
  3.5381e+05   1.17e-21
  3.6283e+05   1.09e-21
  3.7208e+05   1.01e-21
  3.8157e+05   9.38e-22
  3.9130e+05   8.70e-22
  4.0127e+05   8.08e-22
  4.1150e+05   7.49e-22
  4.2200e+05   6.93e-22
  4.3276e+05   6.39e-22
  4.4379e+05   5.92e-22
  4.5511e+05   5.48e-22
  4.6671e+05   5.05e-22
  4.7861e+05   4.65e-22
  4.9082e+05   4.28e-22
  5.0333e+05   3.95e-22
  5.1617e+05   3.64e-22
  5.2933e+05   3.34e-22
  5.4283e+05   3.06e-22
  5.5667e+05   2.82e-22
  5.7086e+05   2.59e-22
  5.8542e+05   2.38e-22
  6.0035e+05   2.17e-22
  6.1565e+05   1.98e-22
  6.3135e+05   1.82e-22
  6.4745e+05   1.67e-22
  6.6396e+05   1.53e-22
  6.8089e+05   1.39e-22
  6.9825e+05   1.27e-22
  7.1606e+05   1.16e-22
  7.3432e+05   1.06e-22
  7.5304e+05   9.63e-23
  7.7224e+05   8.72e-23
  7.9193e+05   7.98e-23
  8.1213e+05   7.28e-23
  8.3283e+05   6.61e-23
  8.5407e+05   5.98e-23
  8.7585e+05   5.42e-23
  8.9818e+05   4.94e-23
  9.2108e+05   4.49e-23
  9.4457e+05   4.05e-23
  9.6866e+05   3.64e-23
  9.9336e+05   3.32e-23
  1.0187e+06   3.02e-23
  1.0447e+06   2.73e-23
  1.0713e+06   2.45e-23
  1.0986e+06   2.21e-23
  1.1266e+06   2.01e-23
  1.1554e+06   1.82e-23
  1.1848e+06   1.64e-23
  1.2150e+06   1.47e-23
  1.2460e+06   1.33e-23
  1.2778e+06   1.21e-23
  1.3104e+06   1.09e-23
  1.3438e+06   9.81e-24
  1.3780e+06   8.80e-24
  1.4132e+06   8.01e-24
  1.4492e+06   7.25e-24
  1.4862e+06   6.54e-24
  1.5241e+06   5.86e-24
  1.5629e+06   5.30e-24
  1.6028e+06   4.83e-24
  1.6436e+06   4.37e-24
  1.6856e+06   3.94e-24
  1.7285e+06   3.54e-24
  1.7726e+06   3.24e-24
  1.8178e+06   2.95e-24
  1.8642e+06   2.68e-24
  1.9117e+06   2.42e-24
  1.9604e+06   2.20e-24
  2.0104e+06   2.02e-24
  2.0617e+06   1.85e-24
  2.1143e+06   1.69e-24
  2.1682e+06   1.53e-24
  2.2235e+06   1.41e-24
  2.2802e+06   1.30e-24
  2.3383e+06   1.20e-24
  2.3979e+06   1.10e-24
  2.4591e+06   1.01e-24
  2.5218e+06   9.36e-25
  2.5861e+06   8.67e-25
  2.6520e+06   8.00e-25
  2.7196e+06   7.37e-25
  2.7890e+06   6.85e-25
  2.8601e+06   6.38e-25
  2.9330e+06   5.93e-25
  3.0078e+06   5.50e-25
  3.0845e+06   5.11e-25
  3.1632e+06   4.78e-25
  3.2438e+06   4.46e-25
  3.3265e+06   4.16e-25
  3.4113e+06   3.87e-25
  3.4983e+06   3.60e-25
  3.5875e+06   3.35e-25
  3.6790e+06   3.11e-25
  3.7728e+06   2.89e-25
  3.8690e+06   2.67e-25
  3.9677e+06   2.47e-25
  4.0689e+06   2.28e-25
  4.1726e+06   2.10e-25
  4.2790e+06   1.93e-25
  4.3881e+06   1.78e-25
  4.5000e+06   1.67e-25
