#  E [GeV]   # per interaction  [GeV^{-1}]
  3.0000e+01   3.98e-01
  3.0943e+01   3.85e-01
  3.1916e+01   3.72e-01
  3.2920e+01   3.60e-01
  3.3955e+01   3.47e-01
  3.5023e+01   3.35e-01
  3.6124e+01   3.24e-01
  3.7260e+01   3.13e-01
  3.8432e+01   3.02e-01
  3.9640e+01   2.92e-01
  4.0887e+01   2.81e-01
  4.2172e+01   2.72e-01
  4.3499e+01   2.62e-01
  4.4866e+01   2.52e-01
  4.6277e+01   2.43e-01
  4.7732e+01   2.35e-01
  4.9233e+01   2.26e-01
  5.0781e+01   2.18e-01
  5.2378e+01   2.10e-01
  5.4025e+01   2.02e-01
  5.5724e+01   1.95e-01
  5.7476e+01   1.87e-01
  5.9284e+01   1.80e-01
  6.1148e+01   1.74e-01
  6.3071e+01   1.67e-01
  6.5054e+01   1.61e-01
  6.7100e+01   1.54e-01
  6.9210e+01   1.48e-01
  7.1386e+01   1.43e-01
  7.3631e+01   1.37e-01
  7.5946e+01   1.32e-01
  7.8334e+01   1.26e-01
  8.0797e+01   1.21e-01
  8.3338e+01   1.16e-01
  8.5959e+01   1.12e-01
  8.8662e+01   1.07e-01
  9.1450e+01   1.03e-01
  9.4325e+01   9.84e-02
  9.7291e+01   9.43e-02
  1.0035e+02   9.03e-02
  1.0351e+02   8.64e-02
  1.0676e+02   8.27e-02
  1.1012e+02   7.91e-02
  1.1358e+02   7.57e-02
  1.1715e+02   7.24e-02
  1.2084e+02   6.92e-02
  1.2464e+02   6.61e-02
  1.2856e+02   6.31e-02
  1.3260e+02   6.02e-02
  1.3677e+02   5.75e-02
  1.4107e+02   5.48e-02
  1.4550e+02   5.23e-02
  1.5008e+02   4.98e-02
  1.5480e+02   4.75e-02
  1.5967e+02   4.52e-02
  1.6469e+02   4.30e-02
  1.6987e+02   4.09e-02
  1.7521e+02   3.89e-02
  1.8072e+02   3.70e-02
  1.8640e+02   3.51e-02
  1.9226e+02   3.34e-02
  1.9831e+02   3.17e-02
  2.0454e+02   3.00e-02
  2.1097e+02   2.85e-02
  2.1761e+02   2.70e-02
  2.2445e+02   2.56e-02
  2.3151e+02   2.42e-02
  2.3879e+02   2.29e-02
  2.4630e+02   2.16e-02
  2.5404e+02   2.04e-02
  2.6203e+02   1.93e-02
  2.7027e+02   1.82e-02
  2.7877e+02   1.72e-02
  2.8753e+02   1.62e-02
  2.9657e+02   1.53e-02
  3.0590e+02   1.44e-02
  3.1552e+02   1.35e-02
  3.2544e+02   1.27e-02
  3.3567e+02   1.19e-02
  3.4623e+02   1.12e-02
  3.5712e+02   1.05e-02
  3.6835e+02   9.85e-03
  3.7993e+02   9.22e-03
  3.9188e+02   8.63e-03
  4.0420e+02   8.07e-03
  4.1691e+02   7.54e-03
  4.3002e+02   7.04e-03
  4.4354e+02   6.57e-03
  4.5749e+02   6.12e-03
  4.7187e+02   5.70e-03
  4.8671e+02   5.31e-03
  5.0202e+02   4.94e-03
  5.1780e+02   4.59e-03
  5.3409e+02   4.26e-03
  5.5088e+02   3.95e-03
  5.6820e+02   3.67e-03
  5.8607e+02   3.40e-03
  6.0450e+02   3.15e-03
  6.2351e+02   2.92e-03
  6.4311e+02   2.70e-03
  6.6334e+02   2.49e-03
  6.8419e+02   2.30e-03
  7.0571e+02   2.13e-03
  7.2790e+02   1.96e-03
  7.5079e+02   1.81e-03
  7.7440e+02   1.67e-03
  7.9875e+02   1.54e-03
  8.2387e+02   1.41e-03
  8.4977e+02   1.30e-03
  8.7649e+02   1.20e-03
  9.0405e+02   1.10e-03
  9.3248e+02   1.01e-03
  9.6180e+02   9.31e-04
  9.9205e+02   8.56e-04
  1.0232e+03   7.86e-04
  1.0554e+03   7.20e-04
  1.0886e+03   6.62e-04
  1.1228e+03   6.08e-04
  1.1581e+03   5.57e-04
  1.1946e+03   5.10e-04
  1.2321e+03   4.68e-04
  1.2709e+03   4.29e-04
  1.3108e+03   3.93e-04
  1.3521e+03   3.59e-04
  1.3946e+03   3.29e-04
  1.4384e+03   3.01e-04
  1.4837e+03   2.75e-04
  1.5303e+03   2.51e-04
  1.5784e+03   2.30e-04
  1.6281e+03   2.10e-04
  1.6793e+03   1.91e-04
  1.7321e+03   1.75e-04
  1.7865e+03   1.59e-04
  1.8427e+03   1.45e-04
  1.9006e+03   1.32e-04
  1.9604e+03   1.20e-04
  2.0221e+03   1.10e-04
  2.0856e+03   9.94e-05
  2.1512e+03   9.04e-05
  2.2189e+03   8.22e-05
  2.2886e+03   7.45e-05
  2.3606e+03   6.73e-05
  2.4348e+03   6.11e-05
  2.5114e+03   5.53e-05
  2.5904e+03   4.99e-05
  2.6718e+03   4.49e-05
  2.7558e+03   4.06e-05
  2.8425e+03   3.66e-05
  2.9319e+03   3.28e-05
  3.0241e+03   2.94e-05
  3.1192e+03   2.64e-05
  3.2173e+03   2.36e-05
  3.3184e+03   2.10e-05
  3.4228e+03   1.88e-05
  3.5304e+03   1.67e-05
  3.6414e+03   1.48e-05
  3.7559e+03   1.31e-05
  3.8740e+03   1.17e-05
  3.9958e+03   1.03e-05
  4.1215e+03   9.06e-06
  4.2511e+03   7.95e-06
  4.3848e+03   7.02e-06
  4.5227e+03   6.15e-06
  4.6649e+03   5.34e-06
  4.8116e+03   4.66e-06
  4.9629e+03   4.07e-06
  5.1189e+03   3.53e-06
  5.2799e+03   3.02e-06
  5.4459e+03   2.62e-06
  5.6171e+03   2.26e-06
  5.7938e+03   1.93e-06
  5.9760e+03   1.63e-06
  6.1639e+03   1.40e-06
  6.3577e+03   1.19e-06
  6.5576e+03   9.93e-07
  6.7638e+03   8.32e-07
  6.9765e+03   7.04e-07
  7.1959e+03   5.87e-07
  7.4222e+03   4.82e-07
  7.6556e+03   4.01e-07
  7.8963e+03   3.33e-07
  8.1446e+03   2.72e-07
  8.4007e+03   2.18e-07
  8.6649e+03   1.80e-07
  8.9373e+03   1.46e-07
  9.2184e+03   1.16e-07
  9.5082e+03   9.16e-08
  9.8072e+03   7.36e-08
  1.0116e+04   5.80e-08
  1.0434e+04   4.46e-08
  1.0762e+04   3.44e-08
  1.1100e+04   2.66e-08
  1.1449e+04   2.00e-08
  1.1809e+04   1.46e-08
  1.2181e+04   1.08e-08
  1.2564e+04   7.79e-09
  1.2959e+04   5.39e-09
  1.3366e+04   3.57e-09
  1.3786e+04   2.44e-09
  1.4220e+04   1.58e-09
