#  E [MeV]   Flux [# cm^{-2} s^{-1}  MeV^{-1}]
  3.0000e+04   3.71e-26
  3.1232e+04   3.54e-26
  3.2514e+04   3.39e-26
  3.3849e+04   3.24e-26
  3.5238e+04   3.09e-26
  3.6685e+04   2.95e-26
  3.8191e+04   2.82e-26
  3.9759e+04   2.70e-26
  4.1391e+04   2.57e-26
  4.3090e+04   2.46e-26
  4.4859e+04   2.35e-26
  4.6701e+04   2.24e-26
  4.8618e+04   2.14e-26
  5.0614e+04   2.04e-26
  5.2692e+04   1.95e-26
  5.4855e+04   1.86e-26
  5.7107e+04   1.78e-26
  5.9451e+04   1.69e-26
  6.1892e+04   1.62e-26
  6.4433e+04   1.54e-26
  6.7078e+04   1.47e-26
  6.9832e+04   1.40e-26
  7.2699e+04   1.34e-26
  7.5683e+04   1.27e-26
  7.8790e+04   1.21e-26
  8.2025e+04   1.16e-26
  8.5392e+04   1.10e-26
  8.8898e+04   1.05e-26
  9.2547e+04   1.00e-26
  9.6347e+04   9.52e-27
  1.0030e+05   9.06e-27
  1.0442e+05   8.62e-27
  1.0871e+05   8.20e-27
  1.1317e+05   7.80e-27
  1.1782e+05   7.41e-27
  1.2265e+05   7.05e-27
  1.2769e+05   6.70e-27
  1.3293e+05   6.36e-27
  1.3839e+05   6.04e-27
  1.4407e+05   5.73e-27
  1.4998e+05   5.43e-27
  1.5614e+05   5.15e-27
  1.6255e+05   4.88e-27
  1.6922e+05   4.62e-27
  1.7617e+05   4.37e-27
  1.8340e+05   4.13e-27
  1.9093e+05   3.91e-27
  1.9877e+05   3.69e-27
  2.0693e+05   3.48e-27
  2.1543e+05   3.28e-27
  2.2427e+05   3.10e-27
  2.3348e+05   2.92e-27
  2.4306e+05   2.74e-27
  2.5304e+05   2.58e-27
  2.6343e+05   2.42e-27
  2.7424e+05   2.27e-27
  2.8550e+05   2.13e-27
  2.9722e+05   1.99e-27
  3.0942e+05   1.86e-27
  3.2213e+05   1.73e-27
  3.3535e+05   1.62e-27
  3.4912e+05   1.51e-27
  3.6345e+05   1.40e-27
  3.7837e+05   1.30e-27
  3.9390e+05   1.21e-27
  4.1008e+05   1.12e-27
  4.2691e+05   1.03e-27
  4.4444e+05   9.56e-28
  4.6268e+05   8.82e-28
  4.8168e+05   8.13e-28
  5.0145e+05   7.49e-28
  5.2204e+05   6.88e-28
  5.4347e+05   6.32e-28
  5.6578e+05   5.80e-28
  5.8901e+05   5.31e-28
  6.1319e+05   4.86e-28
  6.3836e+05   4.45e-28
  6.6457e+05   4.06e-28
  6.9185e+05   3.71e-28
  7.2025e+05   3.39e-28
  7.4982e+05   3.09e-28
  7.8061e+05   2.82e-28
  8.1265e+05   2.57e-28
  8.4601e+05   2.34e-28
  8.8075e+05   2.13e-28
  9.1690e+05   1.94e-28
  9.5455e+05   1.77e-28
  9.9373e+05   1.61e-28
  1.0345e+06   1.47e-28
  1.0770e+06   1.34e-28
  1.1212e+06   1.22e-28
  1.1672e+06   1.11e-28
  1.2152e+06   1.01e-28
  1.2650e+06   9.23e-29
  1.3170e+06   8.42e-29
  1.3711e+06   7.69e-29
  1.4273e+06   7.02e-29
  1.4859e+06   6.41e-29
  1.5469e+06   5.86e-29
  1.6104e+06   5.35e-29
  1.6766e+06   4.90e-29
  1.7454e+06   4.48e-29
  1.8170e+06   4.09e-29
  1.8916e+06   3.74e-29
  1.9693e+06   3.42e-29
  2.0501e+06   3.13e-29
  2.1343e+06   2.86e-29
  2.2219e+06   2.61e-29
  2.3131e+06   2.38e-29
  2.4081e+06   2.17e-29
  2.5070e+06   1.98e-29
  2.6099e+06   1.80e-29
  2.7170e+06   1.64e-29
  2.8286e+06   1.49e-29
  2.9447e+06   1.36e-29
  3.0656e+06   1.23e-29
  3.1914e+06   1.11e-29
  3.3225e+06   1.01e-29
  3.4589e+06   9.08e-30
  3.6008e+06   8.17e-30
  3.7487e+06   7.34e-30
  3.9026e+06   6.58e-30
  4.0628e+06   5.88e-30
  4.2296e+06   5.24e-30
  4.4032e+06   4.66e-30
  4.5840e+06   4.12e-30
  4.7722e+06   3.64e-30
  4.9681e+06   3.21e-30
  5.1720e+06   2.80e-30
  5.3844e+06   2.45e-30
  5.6054e+06   2.13e-30
  5.8355e+06   1.84e-30
  6.0751e+06   1.58e-30
  6.3245e+06   1.35e-30
  6.5841e+06   1.14e-30
  6.8544e+06   9.67e-31
  7.1358e+06   8.09e-31
  7.4288e+06   6.72e-31
  7.7338e+06   5.54e-31
  8.0513e+06   4.51e-31
  8.3818e+06   3.64e-31
  8.7259e+06   2.91e-31
  9.0841e+06   2.29e-31
  9.4571e+06   1.79e-31
  9.8453e+06   1.37e-31
  1.0249e+07   1.03e-31
  1.0670e+07   7.66e-32
  1.1108e+07   5.57e-32
  1.1564e+07   3.95e-32
  1.2039e+07   2.75e-32
  1.2533e+07   1.86e-32
  1.3048e+07   1.21e-32
  1.3584e+07   7.73e-33
  1.4141e+07   4.71e-33
  1.4722e+07   2.75e-33
  1.5326e+07   1.54e-33
  1.5955e+07   8.13e-34
  1.6610e+07   4.04e-34
  1.7292e+07   1.88e-34
  1.8002e+07   8.02e-35
  1.8741e+07   3.14e-35
  1.9511e+07   1.11e-35
  2.0312e+07   3.46e-36
  2.1145e+07   9.43e-37
  2.2013e+07   2.19e-37
  2.2917e+07   4.20e-38
  2.3858e+07   6.50e-39
  2.4837e+07   7.78e-40
  2.5857e+07   6.83e-41
  2.6919e+07   4.24e-42
  2.8024e+07   1.71e-43
  2.9174e+07   4.10e-45
  3.0372e+07   5.40e-47
  3.1619e+07   3.37e-49
  3.2917e+07   8.53e-52
  3.4268e+07   7.27e-55
  3.5675e+07   1.59e-58
  3.7140e+07   6.59e-63
  3.8664e+07   3.42e-68
  4.0252e+07   1.07e-71
  4.1904e+07   1.01e-71
  4.3624e+07   9.66e-72
  4.5415e+07   9.20e-72
  4.7280e+07   8.87e-72
  4.9221e+07   8.61e-72
  5.1241e+07   8.35e-72
  5.3345e+07   8.31e-72
  5.5535e+07   8.30e-72
  5.7815e+07   8.29e-72
  6.0188e+07   8.62e-72
  6.2659e+07   8.93e-72
  6.5232e+07   9.27e-72
  6.7910e+07   1.05e-71
  7.0698e+07   1.17e-71
  7.3600e+07   1.36e-71
  7.6621e+07   1.90e-71
  7.9767e+07   2.38e-71
  8.3042e+07   3.09e-71
  8.6451e+07   4.22e-71
  9.0000e+07   5.26e-71
