#  E [MeV]   Flux [# cm^{-2} s^{-1}  MeV^{-1}]
  3.0000e+04   1.74e-25
  3.1232e+04   1.65e-25
  3.2514e+04   1.58e-25
  3.3849e+04   1.50e-25
  3.5238e+04   1.43e-25
  3.6685e+04   1.36e-25
  3.8191e+04   1.30e-25
  3.9759e+04   1.24e-25
  4.1391e+04   1.18e-25
  4.3090e+04   1.12e-25
  4.4859e+04   1.07e-25
  4.6701e+04   1.02e-25
  4.8618e+04   9.66e-26
  5.0614e+04   9.18e-26
  5.2692e+04   8.74e-26
  5.4855e+04   8.31e-26
  5.7107e+04   7.90e-26
  5.9451e+04   7.50e-26
  6.1892e+04   7.13e-26
  6.4433e+04   6.78e-26
  6.7078e+04   6.44e-26
  6.9832e+04   6.11e-26
  7.2699e+04   5.80e-26
  7.5683e+04   5.51e-26
  7.8790e+04   5.23e-26
  8.2025e+04   4.96e-26
  8.5392e+04   4.71e-26
  8.8898e+04   4.46e-26
  9.2547e+04   4.23e-26
  9.6347e+04   4.01e-26
  1.0030e+05   3.80e-26
  1.0442e+05   3.61e-26
  1.0871e+05   3.42e-26
  1.1317e+05   3.24e-26
  1.1782e+05   3.07e-26
  1.2265e+05   2.90e-26
  1.2769e+05   2.75e-26
  1.3293e+05   2.60e-26
  1.3839e+05   2.46e-26
  1.4407e+05   2.33e-26
  1.4998e+05   2.20e-26
  1.5614e+05   2.08e-26
  1.6255e+05   1.96e-26
  1.6922e+05   1.86e-26
  1.7617e+05   1.75e-26
  1.8340e+05   1.65e-26
  1.9093e+05   1.56e-26
  1.9877e+05   1.47e-26
  2.0693e+05   1.39e-26
  2.1543e+05   1.31e-26
  2.2427e+05   1.23e-26
  2.3348e+05   1.16e-26
  2.4306e+05   1.09e-26
  2.5304e+05   1.03e-26
  2.6343e+05   9.66e-27
  2.7424e+05   9.08e-27
  2.8550e+05   8.53e-27
  2.9722e+05   8.01e-27
  3.0942e+05   7.51e-27
  3.2213e+05   7.04e-27
  3.3535e+05   6.60e-27
  3.4912e+05   6.18e-27
  3.6345e+05   5.78e-27
  3.7837e+05   5.41e-27
  3.9390e+05   5.05e-27
  4.1008e+05   4.72e-27
  4.2691e+05   4.41e-27
  4.4444e+05   4.11e-27
  4.6268e+05   3.83e-27
  4.8168e+05   3.57e-27
  5.0145e+05   3.32e-27
  5.2204e+05   3.09e-27
  5.4347e+05   2.88e-27
  5.6578e+05   2.67e-27
  5.8901e+05   2.48e-27
  6.1319e+05   2.30e-27
  6.3836e+05   2.14e-27
  6.6457e+05   1.98e-27
  6.9185e+05   1.84e-27
  7.2025e+05   1.70e-27
  7.4982e+05   1.57e-27
  7.8061e+05   1.46e-27
  8.1265e+05   1.35e-27
  8.4601e+05   1.24e-27
  8.8075e+05   1.15e-27
  9.1690e+05   1.06e-27
  9.5455e+05   9.80e-28
  9.9373e+05   9.05e-28
  1.0345e+06   8.35e-28
  1.0770e+06   7.70e-28
  1.1212e+06   7.10e-28
  1.1672e+06   6.54e-28
  1.2152e+06   6.03e-28
  1.2650e+06   5.56e-28
  1.3170e+06   5.12e-28
  1.3711e+06   4.72e-28
  1.4273e+06   4.35e-28
  1.4859e+06   4.01e-28
  1.5469e+06   3.69e-28
  1.6104e+06   3.40e-28
  1.6766e+06   3.14e-28
  1.7454e+06   2.89e-28
  1.8170e+06   2.66e-28
  1.8916e+06   2.45e-28
  1.9693e+06   2.26e-28
  2.0501e+06   2.08e-28
  2.1343e+06   1.91e-28
  2.2219e+06   1.76e-28
  2.3131e+06   1.62e-28
  2.4081e+06   1.48e-28
  2.5070e+06   1.36e-28
  2.6099e+06   1.25e-28
  2.7170e+06   1.14e-28
  2.8286e+06   1.05e-28
  2.9447e+06   9.55e-29
  3.0656e+06   8.72e-29
  3.1914e+06   7.95e-29
  3.3225e+06   7.23e-29
  3.4589e+06   6.57e-29
  3.6008e+06   5.97e-29
  3.7487e+06   5.40e-29
  3.9026e+06   4.89e-29
  4.0628e+06   4.42e-29
  4.2296e+06   3.97e-29
  4.4032e+06   3.57e-29
  4.5840e+06   3.21e-29
  4.7722e+06   2.86e-29
  4.9681e+06   2.56e-29
  5.1720e+06   2.28e-29
  5.3844e+06   2.02e-29
  5.6054e+06   1.79e-29
  5.8355e+06   1.57e-29
  6.0751e+06   1.38e-29
  6.3245e+06   1.21e-29
  6.5841e+06   1.06e-29
  6.8544e+06   9.16e-30
  7.1358e+06   7.93e-30
  7.4288e+06   6.82e-30
  7.7338e+06   5.83e-30
  8.0513e+06   4.98e-30
  8.3818e+06   4.21e-30
  8.7259e+06   3.54e-30
  9.0841e+06   2.96e-30
  9.4571e+06   2.45e-30
  9.8453e+06   2.01e-30
  1.0249e+07   1.65e-30
  1.0670e+07   1.32e-30
  1.1108e+07   1.06e-30
  1.1564e+07   8.41e-31
  1.2039e+07   6.53e-31
  1.2533e+07   5.07e-31
  1.3048e+07   3.85e-31
  1.3584e+07   2.86e-31
  1.4141e+07   2.12e-31
  1.4722e+07   1.52e-31
  1.5326e+07   1.07e-31
  1.5955e+07   7.37e-32
  1.6610e+07   4.90e-32
  1.7292e+07   3.16e-32
  1.8002e+07   1.98e-32
  1.8741e+07   1.17e-32
  1.9511e+07   6.68e-33
  2.0312e+07   3.62e-33
  2.1145e+07   1.81e-33
  2.2013e+07   8.54e-34
  2.2917e+07   3.69e-34
  2.3858e+07   1.42e-34
  2.4837e+07   4.94e-35
  2.5857e+07   1.48e-35
  2.6919e+07   3.69e-36
  2.8024e+07   7.69e-37
  2.9174e+07   1.24e-37
  3.0372e+07   1.46e-38
  3.1619e+07   1.23e-39
  3.2917e+07   6.55e-41
  3.4268e+07   1.98e-42
  3.5675e+07   3.05e-44
  3.7140e+07   1.95e-46
  3.8664e+07   4.11e-49
  4.0252e+07   2.16e-52
  4.1904e+07   1.82e-56
  4.3624e+07   1.45e-61
  4.5415e+07   5.28e-68
  4.7280e+07   2.49e-72
  4.9221e+07   2.18e-72
  5.1241e+07   1.92e-72
  5.3345e+07   1.68e-72
  5.5535e+07   1.49e-72
  5.7815e+07   1.33e-72
  6.0188e+07   1.18e-72
  6.2659e+07   1.06e-72
  6.5232e+07   9.50e-73
  6.7910e+07   8.48e-73
  7.0698e+07   7.61e-73
  7.3600e+07   6.79e-73
  7.6621e+07   6.02e-73
  7.9767e+07   5.29e-73
  8.3042e+07   4.61e-73
  8.6451e+07   4.00e-73
  9.0000e+07   3.49e-73
