#  E [GeV]   # per interaction  [GeV^{-1}]
  3.0000e+01   8.20e-01
  3.1033e+01   7.86e-01
  3.2102e+01   7.53e-01
  3.3207e+01   7.21e-01
  3.4350e+01   6.90e-01
  3.5533e+01   6.61e-01
  3.6757e+01   6.33e-01
  3.8022e+01   6.05e-01
  3.9332e+01   5.79e-01
  4.0686e+01   5.54e-01
  4.2087e+01   5.30e-01
  4.3536e+01   5.07e-01
  4.5035e+01   4.85e-01
  4.6586e+01   4.64e-01
  4.8190e+01   4.44e-01
  4.9850e+01   4.24e-01
  5.1566e+01   4.06e-01
  5.3342e+01   3.88e-01
  5.5178e+01   3.71e-01
  5.7078e+01   3.54e-01
  5.9044e+01   3.38e-01
  6.1077e+01   3.23e-01
  6.3180e+01   3.09e-01
  6.5356e+01   2.95e-01
  6.7606e+01   2.81e-01
  6.9934e+01   2.69e-01
  7.2342e+01   2.56e-01
  7.4833e+01   2.45e-01
  7.7410e+01   2.34e-01
  8.0075e+01   2.23e-01
  8.2833e+01   2.13e-01
  8.5685e+01   2.03e-01
  8.8635e+01   1.93e-01
  9.1687e+01   1.84e-01
  9.4844e+01   1.76e-01
  9.8110e+01   1.67e-01
  1.0149e+02   1.60e-01
  1.0498e+02   1.52e-01
  1.0860e+02   1.45e-01
  1.1234e+02   1.38e-01
  1.1621e+02   1.31e-01
  1.2021e+02   1.25e-01
  1.2435e+02   1.19e-01
  1.2863e+02   1.13e-01
  1.3306e+02   1.07e-01
  1.3764e+02   1.02e-01
  1.4238e+02   9.70e-02
  1.4728e+02   9.21e-02
  1.5235e+02   8.74e-02
  1.5760e+02   8.30e-02
  1.6302e+02   7.87e-02
  1.6864e+02   7.46e-02
  1.7445e+02   7.07e-02
  1.8045e+02   6.69e-02
  1.8667e+02   6.33e-02
  1.9309e+02   5.99e-02
  1.9974e+02   5.66e-02
  2.0662e+02   5.35e-02
  2.1373e+02   5.05e-02
  2.2109e+02   4.76e-02
  2.2871e+02   4.49e-02
  2.3658e+02   4.22e-02
  2.4473e+02   3.97e-02
  2.5316e+02   3.73e-02
  2.6187e+02   3.50e-02
  2.7089e+02   3.29e-02
  2.8022e+02   3.08e-02
  2.8987e+02   2.88e-02
  2.9985e+02   2.69e-02
  3.1017e+02   2.51e-02
  3.2085e+02   2.34e-02
  3.3190e+02   2.18e-02
  3.4333e+02   2.03e-02
  3.5515e+02   1.89e-02
  3.6738e+02   1.75e-02
  3.8003e+02   1.63e-02
  3.9312e+02   1.51e-02
  4.0665e+02   1.40e-02
  4.2066e+02   1.29e-02
  4.3514e+02   1.20e-02
  4.5013e+02   1.10e-02
  4.6562e+02   1.02e-02
  4.8166e+02   9.40e-03
  4.9824e+02   8.66e-03
  5.1540e+02   7.96e-03
  5.3315e+02   7.32e-03
  5.5150e+02   6.73e-03
  5.7050e+02   6.17e-03
  5.9014e+02   5.66e-03
  6.1046e+02   5.18e-03
  6.3148e+02   4.74e-03
  6.5322e+02   4.33e-03
  6.7572e+02   3.95e-03
  6.9898e+02   3.61e-03
  7.2305e+02   3.29e-03
  7.4795e+02   3.00e-03
  7.7371e+02   2.73e-03
  8.0035e+02   2.48e-03
  8.2791e+02   2.26e-03
  8.5641e+02   2.06e-03
  8.8590e+02   1.87e-03
  9.1641e+02   1.70e-03
  9.4796e+02   1.54e-03
  9.8061e+02   1.40e-03
  1.0144e+03   1.27e-03
  1.0493e+03   1.15e-03
  1.0854e+03   1.05e-03
  1.1228e+03   9.50e-04
  1.1615e+03   8.61e-04
  1.2015e+03   7.81e-04
  1.2428e+03   7.07e-04
  1.2856e+03   6.40e-04
  1.3299e+03   5.80e-04
  1.3757e+03   5.25e-04
  1.4231e+03   4.75e-04
  1.4721e+03   4.29e-04
  1.5228e+03   3.89e-04
  1.5752e+03   3.51e-04
  1.6294e+03   3.17e-04
  1.6855e+03   2.86e-04
  1.7436e+03   2.58e-04
  1.8036e+03   2.33e-04
  1.8657e+03   2.10e-04
  1.9300e+03   1.89e-04
  1.9964e+03   1.70e-04
  2.0652e+03   1.53e-04
  2.1363e+03   1.37e-04
  2.2098e+03   1.23e-04
  2.2859e+03   1.10e-04
  2.3646e+03   9.88e-05
  2.4461e+03   8.83e-05
  2.5303e+03   7.86e-05
  2.6174e+03   6.99e-05
  2.7075e+03   6.23e-05
  2.8008e+03   5.53e-05
  2.8972e+03   4.88e-05
  2.9970e+03   4.33e-05
  3.1002e+03   3.83e-05
  3.2069e+03   3.36e-05
  3.3173e+03   2.96e-05
  3.4316e+03   2.60e-05
  3.5497e+03   2.27e-05
  3.6720e+03   1.97e-05
  3.7984e+03   1.73e-05
  3.9292e+03   1.50e-05
  4.0645e+03   1.29e-05
  4.2044e+03   1.12e-05
  4.3492e+03   9.66e-06
  4.4990e+03   8.25e-06
  4.6539e+03   7.04e-06
  4.8141e+03   6.03e-06
  4.9799e+03   5.10e-06
  5.1514e+03   4.27e-06
  5.3288e+03   3.63e-06
  5.5123e+03   3.05e-06
  5.7021e+03   2.52e-06
  5.8984e+03   2.10e-06
  6.1015e+03   1.75e-06
  6.3116e+03   1.43e-06
  6.5289e+03   1.16e-06
  6.7538e+03   9.58e-07
  6.9863e+03   7.76e-07
  7.2269e+03   6.17e-07
  7.4757e+03   4.98e-07
  7.7331e+03   3.97e-07
  7.9994e+03   3.11e-07
  8.2749e+03   2.43e-07
  8.5598e+03   1.91e-07
  8.8546e+03   1.47e-07
  9.1594e+03   1.10e-07
  9.4748e+03   8.49e-08
  9.8011e+03   6.38e-08
  1.0139e+04   4.68e-08
  1.0488e+04   3.45e-08
  1.0849e+04   2.53e-08
  1.1222e+04   1.80e-08
  1.1609e+04   1.26e-08
  1.2009e+04   8.92e-09
  1.2422e+04   6.12e-09
  1.2850e+04   4.07e-09
  1.3292e+04   2.71e-09
  1.3750e+04   1.76e-09
  1.4223e+04   1.10e-09
  1.4713e+04   6.71e-10
  1.5220e+04   4.03e-10
  1.5744e+04   2.31e-10
  1.6286e+04   1.27e-10
  1.6847e+04   6.75e-11
  1.7427e+04   3.39e-11
  1.8027e+04   1.60e-11
  1.8648e+04   7.08e-12
  1.9290e+04   2.91e-12
  1.9954e+04   1.10e-12
  2.0641e+04   3.73e-13
  2.1352e+04   1.14e-13
  2.2087e+04   3.06e-14
  2.2848e+04   7.10e-15
  2.3634e+04   1.43e-15
  2.4448e+04   2.40e-16
  2.5290e+04   3.26e-17
