#  E [MeV]   Flux [# cm^{-2} s^{-1}  MeV^{-1}]
  3.0000e+04   1.78e-23
  3.0962e+04   1.73e-23
  3.1955e+04   1.67e-23
  3.2979e+04   1.61e-23
  3.4037e+04   1.56e-23
  3.5128e+04   1.51e-23
  3.6254e+04   1.46e-23
  3.7417e+04   1.41e-23
  3.8616e+04   1.36e-23
  3.9855e+04   1.31e-23
  4.1132e+04   1.27e-23
  4.2451e+04   1.22e-23
  4.3812e+04   1.18e-23
  4.5217e+04   1.14e-23
  4.6667e+04   1.10e-23
  4.8163e+04   1.06e-23
  4.9707e+04   1.03e-23
  5.1301e+04   9.88e-24
  5.2946e+04   9.53e-24
  5.4644e+04   9.18e-24
  5.6396e+04   8.85e-24
  5.8204e+04   8.52e-24
  6.0070e+04   8.21e-24
  6.1996e+04   7.90e-24
  6.3984e+04   7.61e-24
  6.6035e+04   7.32e-24
  6.8153e+04   7.04e-24
  7.0338e+04   6.78e-24
  7.2593e+04   6.51e-24
  7.4921e+04   6.26e-24
  7.7323e+04   6.02e-24
  7.9802e+04   5.78e-24
  8.2361e+04   5.55e-24
  8.5002e+04   5.33e-24
  8.7727e+04   5.12e-24
  9.0540e+04   4.91e-24
  9.3443e+04   4.71e-24
  9.6439e+04   4.52e-24
  9.9531e+04   4.33e-24
  1.0272e+05   4.15e-24
  1.0602e+05   3.98e-24
  1.0942e+05   3.81e-24
  1.1292e+05   3.65e-24
  1.1654e+05   3.49e-24
  1.2028e+05   3.34e-24
  1.2414e+05   3.19e-24
  1.2812e+05   3.05e-24
  1.3223e+05   2.91e-24
  1.3646e+05   2.78e-24
  1.4084e+05   2.66e-24
  1.4536e+05   2.54e-24
  1.5002e+05   2.42e-24
  1.5483e+05   2.31e-24
  1.5979e+05   2.20e-24
  1.6491e+05   2.10e-24
  1.7020e+05   2.00e-24
  1.7566e+05   1.90e-24
  1.8129e+05   1.81e-24
  1.8710e+05   1.72e-24
  1.9310e+05   1.64e-24
  1.9929e+05   1.56e-24
  2.0568e+05   1.48e-24
  2.1228e+05   1.40e-24
  2.1909e+05   1.33e-24
  2.2611e+05   1.26e-24
  2.3336e+05   1.20e-24
  2.4084e+05   1.14e-24
  2.4856e+05   1.08e-24
  2.5653e+05   1.02e-24
  2.6476e+05   9.66e-25
  2.7325e+05   9.15e-25
  2.8201e+05   8.66e-25
  2.9105e+05   8.19e-25
  3.0038e+05   7.75e-25
  3.1002e+05   7.32e-25
  3.1996e+05   6.92e-25
  3.3021e+05   6.53e-25
  3.4080e+05   6.17e-25
  3.5173e+05   5.82e-25
  3.6301e+05   5.49e-25
  3.7465e+05   5.17e-25
  3.8666e+05   4.87e-25
  3.9905e+05   4.59e-25
  4.1185e+05   4.32e-25
  4.2506e+05   4.06e-25
  4.3868e+05   3.82e-25
  4.5275e+05   3.59e-25
  4.6727e+05   3.37e-25
  4.8225e+05   3.16e-25
  4.9771e+05   2.96e-25
  5.1367e+05   2.78e-25
  5.3014e+05   2.60e-25
  5.4714e+05   2.44e-25
  5.6468e+05   2.28e-25
  5.8278e+05   2.13e-25
  6.0147e+05   1.99e-25
  6.2075e+05   1.86e-25
  6.4066e+05   1.74e-25
  6.6120e+05   1.62e-25
  6.8240e+05   1.51e-25
  7.0428e+05   1.41e-25
  7.2686e+05   1.31e-25
  7.5017e+05   1.22e-25
  7.7422e+05   1.14e-25
  7.9904e+05   1.06e-25
  8.2466e+05   9.82e-26
  8.5110e+05   9.11e-26
  8.7839e+05   8.44e-26
  9.0656e+05   7.83e-26
  9.3562e+05   7.26e-26
  9.6562e+05   6.72e-26
  9.9658e+05   6.20e-26
  1.0285e+06   5.74e-26
  1.0615e+06   5.31e-26
  1.0956e+06   4.90e-26
  1.1307e+06   4.52e-26
  1.1669e+06   4.17e-26
  1.2043e+06   3.84e-26
  1.2430e+06   3.53e-26
  1.2828e+06   3.25e-26
  1.3239e+06   2.99e-26
  1.3664e+06   2.74e-26
  1.4102e+06   2.51e-26
  1.4554e+06   2.31e-26
  1.5021e+06   2.12e-26
  1.5502e+06   1.94e-26
  1.6000e+06   1.77e-26
  1.6513e+06   1.62e-26
  1.7042e+06   1.48e-26
  1.7588e+06   1.35e-26
  1.8152e+06   1.23e-26
  1.8734e+06   1.12e-26
  1.9335e+06   1.02e-26
  1.9955e+06   9.27e-27
  2.0595e+06   8.46e-27
  2.1255e+06   7.69e-27
  2.1937e+06   6.96e-27
  2.2640e+06   6.31e-27
  2.3366e+06   5.74e-27
  2.4115e+06   5.19e-27
  2.4888e+06   4.68e-27
  2.5686e+06   4.24e-27
  2.6510e+06   3.84e-27
  2.7360e+06   3.46e-27
  2.8237e+06   3.11e-27
  2.9142e+06   2.82e-27
  3.0077e+06   2.54e-27
  3.1041e+06   2.28e-27
  3.2036e+06   2.05e-27
  3.3064e+06   1.84e-27
  3.4124e+06   1.65e-27
  3.5218e+06   1.47e-27
  3.6347e+06   1.33e-27
  3.7512e+06   1.19e-27
  3.8715e+06   1.06e-27
  3.9957e+06   9.44e-28
  4.1238e+06   8.49e-28
  4.2560e+06   7.58e-28
  4.3924e+06   6.73e-28
  4.5333e+06   6.00e-28
  4.6786e+06   5.37e-28
  4.8286e+06   4.77e-28
  4.9835e+06   4.21e-28
  5.1433e+06   3.77e-28
  5.3082e+06   3.36e-28
  5.4784e+06   2.97e-28
  5.6540e+06   2.63e-28
  5.8353e+06   2.35e-28
  6.0224e+06   2.08e-28
  6.2155e+06   1.84e-28
  6.4148e+06   1.63e-28
  6.6205e+06   1.45e-28
  6.8327e+06   1.28e-28
  7.0518e+06   1.13e-28
  7.2779e+06   1.00e-28
  7.5113e+06   8.88e-29
  7.7521e+06   7.79e-29
  8.0007e+06   6.84e-29
  8.2572e+06   6.09e-29
  8.5219e+06   5.39e-29
  8.7952e+06   4.72e-29
  9.0772e+06   4.20e-29
  9.3682e+06   3.74e-29
  9.6686e+06   3.32e-29
  9.9786e+06   2.92e-29
  1.0299e+07   2.64e-29
  1.0629e+07   2.38e-29
  1.0970e+07   2.14e-29
  1.1321e+07   1.93e-29
  1.1684e+07   1.77e-29
  1.2059e+07   1.61e-29
  1.2446e+07   1.47e-29
  1.2845e+07   1.36e-29
  1.3256e+07   1.26e-29
  1.3681e+07   1.17e-29
  1.4120e+07   1.09e-29
  1.4573e+07   1.02e-29
  1.5040e+07   9.57e-30
  1.5522e+07   8.96e-30
  1.6020e+07   8.39e-30
