#  E [MeV]   Flux [# cm^{-2} s^{-1}  MeV^{-1}]
  3.0000e+04   7.64e-21
  3.0765e+04   7.46e-21
  3.1549e+04   7.27e-21
  3.2354e+04   7.09e-21
  3.3179e+04   6.92e-21
  3.4025e+04   6.75e-21
  3.4892e+04   6.59e-21
  3.5782e+04   6.44e-21
  3.6695e+04   6.28e-21
  3.7630e+04   6.13e-21
  3.8590e+04   5.99e-21
  3.9574e+04   5.85e-21
  4.0583e+04   5.72e-21
  4.1618e+04   5.59e-21
  4.2679e+04   5.46e-21
  4.3767e+04   5.34e-21
  4.4883e+04   5.22e-21
  4.6028e+04   5.10e-21
  4.7201e+04   4.99e-21
  4.8405e+04   4.88e-21
  4.9639e+04   4.78e-21
  5.0905e+04   4.67e-21
  5.2203e+04   4.57e-21
  5.3534e+04   4.48e-21
  5.4899e+04   4.39e-21
  5.6299e+04   4.30e-21
  5.7734e+04   4.21e-21
  5.9207e+04   4.12e-21
  6.0716e+04   4.04e-21
  6.2264e+04   3.96e-21
  6.3852e+04   3.88e-21
  6.5480e+04   3.81e-21
  6.7150e+04   3.73e-21
  6.8862e+04   3.66e-21
  7.0618e+04   3.59e-21
  7.2419e+04   3.52e-21
  7.4265e+04   3.46e-21
  7.6159e+04   3.39e-21
  7.8101e+04   3.33e-21
  8.0092e+04   3.27e-21
  8.2135e+04   3.21e-21
  8.4229e+04   3.15e-21
  8.6377e+04   3.10e-21
  8.8579e+04   3.04e-21
  9.0838e+04   2.99e-21
  9.3154e+04   2.93e-21
  9.5529e+04   2.88e-21
  9.7965e+04   2.83e-21
  1.0046e+05   2.78e-21
  1.0303e+05   2.73e-21
  1.0565e+05   2.68e-21
  1.0835e+05   2.64e-21
  1.1111e+05   2.59e-21
  1.1394e+05   2.55e-21
  1.1685e+05   2.50e-21
  1.1983e+05   2.46e-21
  1.2288e+05   2.42e-21
  1.2602e+05   2.37e-21
  1.2923e+05   2.33e-21
  1.3252e+05   2.29e-21
  1.3590e+05   2.25e-21
  1.3937e+05   2.21e-21
  1.4292e+05   2.17e-21
  1.4657e+05   2.13e-21
  1.5030e+05   2.10e-21
  1.5414e+05   2.06e-21
  1.5807e+05   2.02e-21
  1.6210e+05   1.99e-21
  1.6623e+05   1.95e-21
  1.7047e+05   1.91e-21
  1.7482e+05   1.88e-21
  1.7927e+05   1.84e-21
  1.8384e+05   1.81e-21
  1.8853e+05   1.78e-21
  1.9334e+05   1.74e-21
  1.9827e+05   1.71e-21
  2.0333e+05   1.68e-21
  2.0851e+05   1.64e-21
  2.1383e+05   1.61e-21
  2.1928e+05   1.58e-21
  2.2487e+05   1.55e-21
  2.3060e+05   1.51e-21
  2.3648e+05   1.48e-21
  2.4251e+05   1.45e-21
  2.4870e+05   1.42e-21
  2.5504e+05   1.39e-21
  2.6154e+05   1.36e-21
  2.6821e+05   1.33e-21
  2.7505e+05   1.30e-21
  2.8206e+05   1.27e-21
  2.8926e+05   1.24e-21
  2.9663e+05   1.21e-21
  3.0420e+05   1.18e-21
  3.1195e+05   1.15e-21
  3.1991e+05   1.12e-21
  3.2806e+05   1.09e-21
  3.3643e+05   1.06e-21
  3.4501e+05   1.03e-21
  3.5381e+05   1.01e-21
  3.6283e+05   9.78e-22
  3.7208e+05   9.51e-22
  3.8157e+05   9.24e-22
  3.9130e+05   8.97e-22
  4.0127e+05   8.70e-22
  4.1150e+05   8.45e-22
  4.2200e+05   8.19e-22
  4.3276e+05   7.93e-22
  4.4379e+05   7.68e-22
  4.5511e+05   7.43e-22
  4.6671e+05   7.19e-22
  4.7861e+05   6.95e-22
  4.9082e+05   6.72e-22
  5.0333e+05   6.49e-22
  5.1617e+05   6.26e-22
  5.2933e+05   6.05e-22
  5.4283e+05   5.82e-22
  5.5667e+05   5.61e-22
  5.7086e+05   5.41e-22
  5.8542e+05   5.21e-22
  6.0035e+05   5.01e-22
  6.1565e+05   4.81e-22
  6.3135e+05   4.62e-22
  6.4745e+05   4.44e-22
  6.6396e+05   4.27e-22
  6.8089e+05   4.09e-22
  6.9825e+05   3.92e-22
  7.1606e+05   3.76e-22
  7.3432e+05   3.61e-22
  7.5304e+05   3.45e-22
  7.7224e+05   3.30e-22
  7.9193e+05   3.16e-22
  8.1213e+05   3.02e-22
  8.3283e+05   2.89e-22
  8.5407e+05   2.75e-22
  8.7585e+05   2.63e-22
  8.9818e+05   2.50e-22
  9.2108e+05   2.39e-22
  9.4457e+05   2.27e-22
  9.6866e+05   2.16e-22
  9.9336e+05   2.05e-22
  1.0187e+06   1.95e-22
  1.0447e+06   1.86e-22
  1.0713e+06   1.76e-22
  1.0986e+06   1.67e-22
  1.1266e+06   1.59e-22
  1.1554e+06   1.50e-22
  1.1848e+06   1.43e-22
  1.2150e+06   1.35e-22
  1.2460e+06   1.28e-22
  1.2778e+06   1.21e-22
  1.3104e+06   1.14e-22
  1.3438e+06   1.08e-22
  1.3780e+06   1.02e-22
  1.4132e+06   9.57e-23
  1.4492e+06   9.02e-23
  1.4862e+06   8.49e-23
  1.5241e+06   7.99e-23
  1.5629e+06   7.50e-23
  1.6028e+06   7.04e-23
  1.6436e+06   6.61e-23
  1.6856e+06   6.19e-23
  1.7285e+06   5.78e-23
  1.7726e+06   5.39e-23
  1.8178e+06   5.03e-23
  1.8642e+06   4.68e-23
  1.9117e+06   4.35e-23
  1.9604e+06   4.04e-23
  2.0104e+06   3.74e-23
  2.0617e+06   3.46e-23
  2.1143e+06   3.20e-23
  2.1682e+06   2.95e-23
  2.2235e+06   2.72e-23
  2.2802e+06   2.50e-23
  2.3383e+06   2.29e-23
  2.3979e+06   2.10e-23
  2.4591e+06   1.92e-23
  2.5218e+06   1.76e-23
  2.5861e+06   1.60e-23
  2.6520e+06   1.45e-23
  2.7196e+06   1.32e-23
  2.7890e+06   1.19e-23
  2.8601e+06   1.08e-23
  2.9330e+06   9.65e-24
  3.0078e+06   8.66e-24
  3.0845e+06   7.80e-24
  3.1632e+06   6.99e-24
  3.2438e+06   6.22e-24
  3.3265e+06   5.49e-24
  3.4113e+06   4.92e-24
  3.4983e+06   4.41e-24
  3.5875e+06   3.91e-24
  3.6790e+06   3.45e-24
  3.7728e+06   3.05e-24
  3.8690e+06   2.75e-24
  3.9677e+06   2.47e-24
  4.0689e+06   2.20e-24
  4.1726e+06   1.95e-24
  4.2790e+06   1.78e-24
  4.3881e+06   1.65e-24
  4.5000e+06   1.53e-24
