#  E [MeV]   Flux [# cm^{-2} s^{-1}  MeV^{-1}]
  3.0000e+04   1.04e-24
  3.0607e+04   1.02e-24
  3.1227e+04   9.87e-25
  3.1859e+04   9.59e-25
  3.2504e+04   9.33e-25
  3.3163e+04   9.06e-25
  3.3834e+04   8.81e-25
  3.4519e+04   8.57e-25
  3.5218e+04   8.33e-25
  3.5931e+04   8.10e-25
  3.6659e+04   7.87e-25
  3.7401e+04   7.65e-25
  3.8158e+04   7.44e-25
  3.8931e+04   7.23e-25
  3.9719e+04   7.03e-25
  4.0523e+04   6.84e-25
  4.1344e+04   6.64e-25
  4.2181e+04   6.46e-25
  4.3035e+04   6.28e-25
  4.3906e+04   6.11e-25
  4.4795e+04   5.94e-25
  4.5702e+04   5.77e-25
  4.6628e+04   5.61e-25
  4.7572e+04   5.45e-25
  4.8535e+04   5.30e-25
  4.9517e+04   5.16e-25
  5.0520e+04   5.01e-25
  5.1543e+04   4.88e-25
  5.2587e+04   4.74e-25
  5.3651e+04   4.61e-25
  5.4738e+04   4.48e-25
  5.5846e+04   4.36e-25
  5.6977e+04   4.24e-25
  5.8130e+04   4.12e-25
  5.9307e+04   4.01e-25
  6.0508e+04   3.90e-25
  6.1733e+04   3.79e-25
  6.2983e+04   3.69e-25
  6.4258e+04   3.59e-25
  6.5559e+04   3.49e-25
  6.6887e+04   3.39e-25
  6.8241e+04   3.30e-25
  6.9623e+04   3.21e-25
  7.1033e+04   3.13e-25
  7.2471e+04   3.04e-25
  7.3938e+04   2.96e-25
  7.5435e+04   2.88e-25
  7.6963e+04   2.80e-25
  7.8521e+04   2.72e-25
  8.0111e+04   2.65e-25
  8.1733e+04   2.58e-25
  8.3388e+04   2.51e-25
  8.5076e+04   2.44e-25
  8.6799e+04   2.37e-25
  8.8556e+04   2.31e-25
  9.0349e+04   2.25e-25
  9.2178e+04   2.19e-25
  9.4045e+04   2.13e-25
  9.5949e+04   2.07e-25
  9.7892e+04   2.02e-25
  9.9874e+04   1.96e-25
  1.0190e+05   1.91e-25
  1.0396e+05   1.86e-25
  1.0606e+05   1.81e-25
  1.0821e+05   1.76e-25
  1.1040e+05   1.71e-25
  1.1264e+05   1.67e-25
  1.1492e+05   1.62e-25
  1.1725e+05   1.58e-25
  1.1962e+05   1.54e-25
  1.2204e+05   1.50e-25
  1.2451e+05   1.46e-25
  1.2703e+05   1.42e-25
  1.2961e+05   1.38e-25
  1.3223e+05   1.35e-25
  1.3491e+05   1.31e-25
  1.3764e+05   1.28e-25
  1.4043e+05   1.24e-25
  1.4327e+05   1.21e-25
  1.4617e+05   1.18e-25
  1.4913e+05   1.15e-25
  1.5215e+05   1.11e-25
  1.5523e+05   1.09e-25
  1.5837e+05   1.06e-25
  1.6158e+05   1.03e-25
  1.6485e+05   1.00e-25
  1.6819e+05   9.75e-26
  1.7159e+05   9.49e-26
  1.7507e+05   9.23e-26
  1.7861e+05   8.98e-26
  1.8223e+05   8.74e-26
  1.8592e+05   8.50e-26
  1.8968e+05   8.27e-26
  1.9352e+05   8.04e-26
  1.9744e+05   7.82e-26
  2.0144e+05   7.60e-26
  2.0552e+05   7.39e-26
  2.0968e+05   7.19e-26
  2.1392e+05   6.98e-26
  2.1826e+05   6.79e-26
  2.2267e+05   6.60e-26
  2.2718e+05   6.41e-26
  2.3178e+05   6.23e-26
  2.3648e+05   6.05e-26
  2.4126e+05   5.88e-26
  2.4615e+05   5.71e-26
  2.5113e+05   5.55e-26
  2.5622e+05   5.39e-26
  2.6141e+05   5.23e-26
  2.6670e+05   5.08e-26
  2.7210e+05   4.93e-26
  2.7761e+05   4.78e-26
  2.8323e+05   4.64e-26
  2.8896e+05   4.50e-26
  2.9481e+05   4.37e-26
  3.0078e+05   4.24e-26
  3.0687e+05   4.11e-26
  3.1309e+05   3.98e-26
  3.1943e+05   3.86e-26
  3.2589e+05   3.74e-26
  3.3249e+05   3.63e-26
  3.3922e+05   3.51e-26
  3.4609e+05   3.40e-26
  3.5310e+05   3.29e-26
  3.6025e+05   3.18e-26
  3.6754e+05   3.08e-26
  3.7498e+05   2.98e-26
  3.8258e+05   2.88e-26
  3.9032e+05   2.79e-26
  3.9823e+05   2.69e-26
  4.0629e+05   2.60e-26
  4.1452e+05   2.52e-26
  4.2291e+05   2.43e-26
  4.3147e+05   2.35e-26
  4.4021e+05   2.27e-26
  4.4912e+05   2.19e-26
  4.5821e+05   2.11e-26
  4.6749e+05   2.03e-26
  4.7696e+05   1.96e-26
  4.8661e+05   1.89e-26
  4.9647e+05   1.82e-26
  5.0652e+05   1.76e-26
  5.1678e+05   1.69e-26
  5.2724e+05   1.63e-26
  5.3791e+05   1.57e-26
  5.4881e+05   1.51e-26
  5.5992e+05   1.46e-26
  5.7125e+05   1.40e-26
  5.8282e+05   1.35e-26
  5.9462e+05   1.30e-26
  6.0666e+05   1.25e-26
  6.1894e+05   1.20e-26
  6.3148e+05   1.15e-26
  6.4426e+05   1.11e-26
  6.5731e+05   1.07e-26
  6.7061e+05   1.02e-26
  6.8419e+05   9.83e-27
  6.9805e+05   9.44e-27
  7.1218e+05   9.06e-27
  7.2660e+05   8.70e-27
  7.4131e+05   8.36e-27
  7.5632e+05   8.02e-27
  7.7163e+05   7.70e-27
  7.8726e+05   7.38e-27
  8.0320e+05   7.09e-27
  8.1946e+05   6.80e-27
  8.3605e+05   6.52e-27
  8.5298e+05   6.26e-27
  8.7025e+05   6.00e-27
  8.8787e+05   5.76e-27
  9.0585e+05   5.52e-27
  9.2419e+05   5.30e-27
  9.4290e+05   5.08e-27
  9.6199e+05   4.88e-27
  9.8147e+05   4.68e-27
  1.0013e+06   4.49e-27
  1.0216e+06   4.31e-27
  1.0423e+06   4.13e-27
  1.0634e+06   3.96e-27
  1.0849e+06   3.80e-27
  1.1069e+06   3.65e-27
  1.1293e+06   3.50e-27
  1.1522e+06   3.36e-27
  1.1755e+06   3.23e-27
  1.1993e+06   3.09e-27
  1.2236e+06   2.97e-27
  1.2484e+06   2.85e-27
  1.2736e+06   2.73e-27
  1.2994e+06   2.62e-27
  1.3257e+06   2.51e-27
  1.3526e+06   2.41e-27
  1.3800e+06   2.31e-27
  1.4079e+06   2.21e-27
  1.4364e+06   2.12e-27
  1.4655e+06   2.04e-27
  1.4952e+06   1.95e-27
  1.5255e+06   1.88e-27
  1.5563e+06   1.82e-27
  1.5879e+06   1.75e-27
  1.6200e+06   1.69e-27
