#  E [MeV]   Flux [# cm^{-2} s^{-1}  MeV^{-1}]
  3.0000e+04   5.59e-20
  3.1123e+04   5.37e-20
  3.2288e+04   5.16e-20
  3.3497e+04   4.96e-20
  3.4751e+04   4.76e-20
  3.6051e+04   4.58e-20
  3.7401e+04   4.40e-20
  3.8801e+04   4.22e-20
  4.0253e+04   4.06e-20
  4.1760e+04   3.90e-20
  4.3324e+04   3.74e-20
  4.4945e+04   3.59e-20
  4.6628e+04   3.45e-20
  4.8373e+04   3.31e-20
  5.0184e+04   3.18e-20
  5.2063e+04   3.05e-20
  5.4011e+04   2.93e-20
  5.6033e+04   2.81e-20
  5.8131e+04   2.70e-20
  6.0307e+04   2.59e-20
  6.2564e+04   2.48e-20
  6.4906e+04   2.38e-20
  6.7336e+04   2.28e-20
  6.9857e+04   2.19e-20
  7.2472e+04   2.10e-20
  7.5184e+04   2.01e-20
  7.7999e+04   1.93e-20
  8.0919e+04   1.85e-20
  8.3948e+04   1.77e-20
  8.7090e+04   1.70e-20
  9.0350e+04   1.63e-20
  9.3732e+04   1.56e-20
  9.7241e+04   1.49e-20
  1.0088e+05   1.43e-20
  1.0466e+05   1.37e-20
  1.0858e+05   1.31e-20
  1.1264e+05   1.25e-20
  1.1686e+05   1.20e-20
  1.2123e+05   1.14e-20
  1.2577e+05   1.09e-20
  1.3048e+05   1.05e-20
  1.3536e+05   1.00e-20
  1.4043e+05   9.55e-21
  1.4568e+05   9.12e-21
  1.5114e+05   8.71e-21
  1.5680e+05   8.32e-21
  1.6266e+05   7.93e-21
  1.6875e+05   7.57e-21
  1.7507e+05   7.22e-21
  1.8162e+05   6.88e-21
  1.8842e+05   6.55e-21
  1.9548e+05   6.24e-21
  2.0279e+05   5.95e-21
  2.1039e+05   5.66e-21
  2.1826e+05   5.39e-21
  2.2643e+05   5.12e-21
  2.3491e+05   4.87e-21
  2.4370e+05   4.63e-21
  2.5282e+05   4.40e-21
  2.6229e+05   4.18e-21
  2.7211e+05   3.96e-21
  2.8229e+05   3.76e-21
  2.9286e+05   3.56e-21
  3.0382e+05   3.38e-21
  3.1519e+05   3.20e-21
  3.2699e+05   3.03e-21
  3.3923e+05   2.86e-21
  3.5193e+05   2.71e-21
  3.6511e+05   2.56e-21
  3.7877e+05   2.42e-21
  3.9295e+05   2.28e-21
  4.0766e+05   2.16e-21
  4.2292e+05   2.03e-21
  4.3875e+05   1.92e-21
  4.5518e+05   1.81e-21
  4.7222e+05   1.70e-21
  4.8989e+05   1.60e-21
  5.0823e+05   1.50e-21
  5.2726e+05   1.41e-21
  5.4699e+05   1.33e-21
  5.6747e+05   1.25e-21
  5.8871e+05   1.17e-21
  6.1075e+05   1.10e-21
  6.3361e+05   1.03e-21
  6.5733e+05   9.65e-22
  6.8194e+05   9.04e-22
  7.0746e+05   8.46e-22
  7.3395e+05   7.92e-22
  7.6142e+05   7.41e-22
  7.8992e+05   6.92e-22
  8.1949e+05   6.47e-22
  8.5017e+05   6.05e-22
  8.8199e+05   5.65e-22
  9.1501e+05   5.27e-22
  9.4926e+05   4.92e-22
  9.8479e+05   4.59e-22
  1.0217e+06   4.28e-22
  1.0599e+06   3.99e-22
  1.0996e+06   3.71e-22
  1.1407e+06   3.46e-22
  1.1834e+06   3.22e-22
  1.2277e+06   2.99e-22
  1.2737e+06   2.78e-22
  1.3214e+06   2.59e-22
  1.3708e+06   2.40e-22
  1.4222e+06   2.23e-22
  1.4754e+06   2.07e-22
  1.5306e+06   1.92e-22
  1.5879e+06   1.78e-22
  1.6474e+06   1.66e-22
  1.7090e+06   1.53e-22
  1.7730e+06   1.42e-22
  1.8394e+06   1.32e-22
  1.9082e+06   1.22e-22
  1.9797e+06   1.13e-22
  2.0538e+06   1.04e-22
  2.1306e+06   9.63e-23
  2.2104e+06   8.89e-23
  2.2931e+06   8.21e-23
  2.3790e+06   7.57e-23
  2.4680e+06   6.97e-23
  2.5604e+06   6.42e-23
  2.6563e+06   5.91e-23
  2.7557e+06   5.43e-23
  2.8589e+06   5.00e-23
  2.9659e+06   4.59e-23
  3.0769e+06   4.20e-23
  3.1921e+06   3.86e-23
  3.3116e+06   3.54e-23
  3.4355e+06   3.23e-23
  3.5641e+06   2.96e-23
  3.6976e+06   2.70e-23
  3.8360e+06   2.46e-23
  3.9796e+06   2.24e-23
  4.1285e+06   2.05e-23
  4.2831e+06   1.86e-23
  4.4434e+06   1.69e-23
  4.6097e+06   1.53e-23
  4.7823e+06   1.39e-23
  4.9613e+06   1.25e-23
  5.1470e+06   1.13e-23
  5.3397e+06   1.02e-23
  5.5396e+06   9.17e-24
  5.7470e+06   8.26e-24
  5.9621e+06   7.41e-24
  6.1853e+06   6.62e-24
  6.4168e+06   5.93e-24
  6.6570e+06   5.30e-24
  6.9062e+06   4.70e-24
  7.1647e+06   4.19e-24
  7.4329e+06   3.72e-24
  7.7112e+06   3.28e-24
  7.9998e+06   2.90e-24
  8.2993e+06   2.55e-24
  8.6100e+06   2.24e-24
  8.9323e+06   1.96e-24
  9.2666e+06   1.71e-24
  9.6135e+06   1.48e-24
  9.9734e+06   1.28e-24
  1.0347e+07   1.11e-24
  1.0734e+07   9.50e-25
  1.1136e+07   8.11e-25
  1.1553e+07   6.93e-25
  1.1985e+07   5.86e-25
  1.2434e+07   4.92e-25
  1.2899e+07   4.14e-25
  1.3382e+07   3.45e-25
  1.3883e+07   2.83e-25
  1.4403e+07   2.34e-25
  1.4942e+07   1.91e-25
  1.5501e+07   1.52e-25
  1.6081e+07   1.23e-25
  1.6683e+07   9.74e-26
  1.7308e+07   7.55e-26
  1.7956e+07   5.85e-26
  1.8628e+07   4.45e-26
  1.9325e+07   3.29e-26
  2.0049e+07   2.42e-26
  2.0799e+07   1.75e-26
  2.1578e+07   1.21e-26
  2.2386e+07   8.27e-27
  2.3224e+07   5.51e-27
  2.4093e+07   3.49e-27
  2.4995e+07   2.13e-27
  2.5930e+07   1.26e-27
  2.6901e+07   6.91e-28
  2.7908e+07   3.54e-28
  2.8953e+07   1.72e-28
  3.0037e+07   7.48e-29
  3.1161e+07   2.88e-29
  3.2327e+07   9.98e-30
  3.3537e+07   2.89e-30
  3.4793e+07   6.75e-31
  3.6095e+07   1.29e-31
  3.7446e+07   1.81e-32
  3.8848e+07   1.72e-33
  4.0302e+07   1.06e-34
  4.1811e+07   3.60e-36
  4.3376e+07   5.69e-38
  4.5000e+07   3.66e-40
