#  E [MeV]   Flux [# cm^{-2} s^{-1}  MeV^{-1}]
  3.0000e+04   1.66e-25
  3.1141e+04   1.59e-25
  3.2326e+04   1.53e-25
  3.3556e+04   1.47e-25
  3.4832e+04   1.41e-25
  3.6157e+04   1.35e-25
  3.7533e+04   1.29e-25
  3.8961e+04   1.24e-25
  4.0443e+04   1.19e-25
  4.1982e+04   1.14e-25
  4.3579e+04   1.09e-25
  4.5237e+04   1.05e-25
  4.6958e+04   1.00e-25
  4.8744e+04   9.62e-26
  5.0598e+04   9.22e-26
  5.2523e+04   8.83e-26
  5.4521e+04   8.46e-26
  5.6596e+04   8.10e-26
  5.8749e+04   7.76e-26
  6.0984e+04   7.43e-26
  6.3304e+04   7.12e-26
  6.5712e+04   6.81e-26
  6.8212e+04   6.52e-26
  7.0807e+04   6.24e-26
  7.3500e+04   5.97e-26
  7.6297e+04   5.71e-26
  7.9199e+04   5.47e-26
  8.2212e+04   5.23e-26
  8.5340e+04   5.00e-26
  8.8586e+04   4.78e-26
  9.1956e+04   4.57e-26
  9.5455e+04   4.37e-26
  9.9086e+04   4.17e-26
  1.0286e+05   3.98e-26
  1.0677e+05   3.80e-26
  1.1083e+05   3.63e-26
  1.1505e+05   3.47e-26
  1.1942e+05   3.31e-26
  1.2397e+05   3.16e-26
  1.2868e+05   3.01e-26
  1.3358e+05   2.87e-26
  1.3866e+05   2.74e-26
  1.4394e+05   2.61e-26
  1.4941e+05   2.48e-26
  1.5509e+05   2.36e-26
  1.6100e+05   2.25e-26
  1.6712e+05   2.14e-26
  1.7348e+05   2.04e-26
  1.8008e+05   1.93e-26
  1.8693e+05   1.84e-26
  1.9404e+05   1.74e-26
  2.0142e+05   1.66e-26
  2.0908e+05   1.57e-26
  2.1704e+05   1.49e-26
  2.2529e+05   1.41e-26
  2.3387e+05   1.34e-26
  2.4276e+05   1.27e-26
  2.5200e+05   1.20e-26
  2.6158e+05   1.13e-26
  2.7154e+05   1.07e-26
  2.8187e+05   1.01e-26
  2.9259e+05   9.53e-27
  3.0372e+05   8.99e-27
  3.1527e+05   8.46e-27
  3.2727e+05   7.96e-27
  3.3972e+05   7.49e-27
  3.5264e+05   7.03e-27
  3.6606e+05   6.60e-27
  3.7998e+05   6.19e-27
  3.9444e+05   5.81e-27
  4.0945e+05   5.44e-27
  4.2502e+05   5.09e-27
  4.4119e+05   4.76e-27
  4.5798e+05   4.45e-27
  4.7540e+05   4.15e-27
  4.9348e+05   3.87e-27
  5.1226e+05   3.61e-27
  5.3175e+05   3.36e-27
  5.5198e+05   3.13e-27
  5.7297e+05   2.91e-27
  5.9477e+05   2.71e-27
  6.1740e+05   2.51e-27
  6.4089e+05   2.33e-27
  6.6527e+05   2.16e-27
  6.9058e+05   2.00e-27
  7.1685e+05   1.86e-27
  7.4412e+05   1.72e-27
  7.7243e+05   1.59e-27
  8.0181e+05   1.47e-27
  8.3232e+05   1.36e-27
  8.6398e+05   1.26e-27
  8.9685e+05   1.16e-27
  9.3097e+05   1.08e-27
  9.6638e+05   9.94e-28
  1.0031e+06   9.19e-28
  1.0413e+06   8.48e-28
  1.0809e+06   7.83e-28
  1.1220e+06   7.23e-28
  1.1647e+06   6.67e-28
  1.2090e+06   6.16e-28
  1.2550e+06   5.68e-28
  1.3028e+06   5.24e-28
  1.3523e+06   4.83e-28
  1.4038e+06   4.46e-28
  1.4572e+06   4.11e-28
  1.5126e+06   3.78e-28
  1.5702e+06   3.49e-28
  1.6299e+06   3.22e-28
  1.6919e+06   2.96e-28
  1.7563e+06   2.73e-28
  1.8231e+06   2.51e-28
  1.8925e+06   2.31e-28
  1.9645e+06   2.13e-28
  2.0392e+06   1.96e-28
  2.1168e+06   1.80e-28
  2.1973e+06   1.65e-28
  2.2809e+06   1.52e-28
  2.3677e+06   1.40e-28
  2.4577e+06   1.28e-28
  2.5512e+06   1.17e-28
  2.6483e+06   1.07e-28
  2.7490e+06   9.83e-29
  2.8536e+06   9.00e-29
  2.9622e+06   8.22e-29
  3.0749e+06   7.50e-29
  3.1918e+06   6.85e-29
  3.3133e+06   6.23e-29
  3.4393e+06   5.67e-29
  3.5702e+06   5.16e-29
  3.7060e+06   4.68e-29
  3.8470e+06   4.24e-29
  3.9933e+06   3.84e-29
  4.1452e+06   3.47e-29
  4.3029e+06   3.13e-29
  4.4666e+06   2.82e-29
  4.6366e+06   2.54e-29
  4.8129e+06   2.27e-29
  4.9960e+06   2.04e-29
  5.1861e+06   1.82e-29
  5.3834e+06   1.62e-29
  5.5882e+06   1.45e-29
  5.8008e+06   1.28e-29
  6.0215e+06   1.13e-29
  6.2506e+06   1.00e-29
  6.4883e+06   8.82e-30
  6.7352e+06   7.72e-30
  6.9914e+06   6.77e-30
  7.2574e+06   5.90e-30
  7.5335e+06   5.11e-30
  7.8201e+06   4.43e-30
  8.1176e+06   3.82e-30
  8.4264e+06   3.27e-30
  8.7470e+06   2.79e-30
  9.0797e+06   2.37e-30
  9.4251e+06   2.00e-30
  9.7837e+06   1.68e-30
  1.0156e+07   1.40e-30
  1.0542e+07   1.16e-30
  1.0943e+07   9.53e-31
  1.1360e+07   7.79e-31
  1.1792e+07   6.27e-31
  1.2240e+07   5.02e-31
  1.2706e+07   3.98e-31
  1.3189e+07   3.11e-31
  1.3691e+07   2.40e-31
  1.4212e+07   1.83e-31
  1.4753e+07   1.37e-31
  1.5314e+07   1.00e-31
  1.5897e+07   7.26e-32
  1.6501e+07   5.11e-32
  1.7129e+07   3.50e-32
  1.7781e+07   2.34e-32
  1.8457e+07   1.51e-32
  1.9159e+07   9.34e-33
  1.9888e+07   5.60e-33
  2.0645e+07   3.17e-33
  2.1430e+07   1.69e-33
  2.2245e+07   8.53e-34
  2.3092e+07   3.96e-34
  2.3970e+07   1.67e-34
  2.4882e+07   6.39e-35
  2.5829e+07   2.15e-35
  2.6811e+07   6.18e-36
  2.7831e+07   1.50e-36
  2.8890e+07   2.94e-37
  2.9989e+07   4.43e-38
  3.1130e+07   5.00e-39
  3.2314e+07   3.87e-40
  3.3544e+07   1.88e-41
  3.4820e+07   5.35e-43
  3.6144e+07   7.63e-45
  3.7519e+07   4.56e-47
  3.8947e+07   9.87e-50
  4.0428e+07   5.59e-53
  4.1966e+07   5.62e-57
  4.3563e+07   7.36e-62
  4.5220e+07   5.96e-68
  4.6941e+07   1.98e-70
  4.8726e+07   2.46e-70
  5.0580e+07   3.06e-70
