#  E [GeV]   # per interaction  [GeV^{-1}]
  3.0000e+01   1.16e+00
  3.1141e+01   1.11e+00
  3.2326e+01   1.06e+00
  3.3556e+01   1.01e+00
  3.4832e+01   9.69e-01
  3.6157e+01   9.26e-01
  3.7533e+01   8.85e-01
  3.8961e+01   8.45e-01
  4.0443e+01   8.07e-01
  4.1982e+01   7.71e-01
  4.3579e+01   7.36e-01
  4.5237e+01   7.02e-01
  4.6958e+01   6.70e-01
  4.8744e+01   6.40e-01
  5.0598e+01   6.10e-01
  5.2523e+01   5.82e-01
  5.4521e+01   5.55e-01
  5.6596e+01   5.30e-01
  5.8749e+01   5.05e-01
  6.0984e+01   4.81e-01
  6.3304e+01   4.59e-01
  6.5712e+01   4.37e-01
  6.8212e+01   4.17e-01
  7.0807e+01   3.97e-01
  7.3500e+01   3.78e-01
  7.6297e+01   3.60e-01
  7.9199e+01   3.43e-01
  8.2212e+01   3.26e-01
  8.5340e+01   3.10e-01
  8.8586e+01   2.95e-01
  9.1956e+01   2.81e-01
  9.5455e+01   2.67e-01
  9.9086e+01   2.54e-01
  1.0286e+02   2.41e-01
  1.0677e+02   2.29e-01
  1.1083e+02   2.18e-01
  1.1505e+02   2.07e-01
  1.1942e+02   1.97e-01
  1.2397e+02   1.87e-01
  1.2868e+02   1.77e-01
  1.3358e+02   1.68e-01
  1.3866e+02   1.60e-01
  1.4394e+02   1.51e-01
  1.4941e+02   1.44e-01
  1.5509e+02   1.36e-01
  1.6100e+02   1.29e-01
  1.6712e+02   1.22e-01
  1.7348e+02   1.16e-01
  1.8008e+02   1.10e-01
  1.8693e+02   1.04e-01
  1.9404e+02   9.80e-02
  2.0142e+02   9.27e-02
  2.0908e+02   8.76e-02
  2.1704e+02   8.27e-02
  2.2529e+02   7.81e-02
  2.3387e+02   7.37e-02
  2.4276e+02   6.95e-02
  2.5200e+02   6.56e-02
  2.6158e+02   6.18e-02
  2.7154e+02   5.82e-02
  2.8187e+02   5.48e-02
  2.9259e+02   5.15e-02
  3.0372e+02   4.84e-02
  3.1527e+02   4.55e-02
  3.2727e+02   4.27e-02
  3.3972e+02   4.01e-02
  3.5264e+02   3.76e-02
  3.6606e+02   3.52e-02
  3.7998e+02   3.30e-02
  3.9444e+02   3.08e-02
  4.0945e+02   2.88e-02
  4.2502e+02   2.69e-02
  4.4119e+02   2.51e-02
  4.5798e+02   2.35e-02
  4.7540e+02   2.19e-02
  4.9348e+02   2.04e-02
  5.1226e+02   1.90e-02
  5.3175e+02   1.76e-02
  5.5198e+02   1.64e-02
  5.7297e+02   1.52e-02
  5.9477e+02   1.42e-02
  6.1740e+02   1.31e-02
  6.4089e+02   1.22e-02
  6.6527e+02   1.13e-02
  6.9058e+02   1.05e-02
  7.1685e+02   9.68e-03
  7.4412e+02   8.96e-03
  7.7243e+02   8.29e-03
  8.0181e+02   7.66e-03
  8.3232e+02   7.08e-03
  8.6398e+02   6.54e-03
  8.9685e+02   6.04e-03
  9.3097e+02   5.57e-03
  9.6638e+02   5.14e-03
  1.0031e+03   4.74e-03
  1.0413e+03   4.37e-03
  1.0809e+03   4.02e-03
  1.1220e+03   3.71e-03
  1.1647e+03   3.42e-03
  1.2090e+03   3.14e-03
  1.2550e+03   2.89e-03
  1.3028e+03   2.66e-03
  1.3523e+03   2.44e-03
  1.4038e+03   2.24e-03
  1.4572e+03   2.06e-03
  1.5126e+03   1.89e-03
  1.5702e+03   1.73e-03
  1.6299e+03   1.59e-03
  1.6919e+03   1.45e-03
  1.7563e+03   1.33e-03
  1.8231e+03   1.22e-03
  1.8925e+03   1.11e-03
  1.9645e+03   1.02e-03
  2.0392e+03   9.29e-04
  2.1168e+03   8.47e-04
  2.1973e+03   7.72e-04
  2.2809e+03   7.04e-04
  2.3677e+03   6.41e-04
  2.4577e+03   5.82e-04
  2.5512e+03   5.29e-04
  2.6483e+03   4.80e-04
  2.7490e+03   4.34e-04
  2.8536e+03   3.94e-04
  2.9622e+03   3.56e-04
  3.0749e+03   3.20e-04
  3.1918e+03   2.90e-04
  3.3133e+03   2.61e-04
  3.4393e+03   2.34e-04
  3.5702e+03   2.10e-04
  3.7060e+03   1.89e-04
  3.8470e+03   1.68e-04
  3.9933e+03   1.51e-04
  4.1452e+03   1.35e-04
  4.3029e+03   1.19e-04
  4.4666e+03   1.07e-04
  4.6366e+03   9.46e-05
  4.8129e+03   8.35e-05
  4.9960e+03   7.40e-05
  5.1861e+03   6.53e-05
  5.3834e+03   5.72e-05
  5.5882e+03   5.03e-05
  5.8008e+03   4.41e-05
  6.0215e+03   3.83e-05
  6.2506e+03   3.34e-05
  6.4883e+03   2.91e-05
  6.7352e+03   2.51e-05
  6.9914e+03   2.17e-05
  7.2574e+03   1.87e-05
  7.5335e+03   1.60e-05
  7.8201e+03   1.37e-05
  8.1176e+03   1.17e-05
  8.4264e+03   9.93e-06
  8.7470e+03   8.39e-06
  9.0797e+03   7.10e-06
  9.4251e+03   5.94e-06
  9.7837e+03   4.94e-06
  1.0156e+04   4.13e-06
  1.0542e+04   3.40e-06
  1.0943e+04   2.78e-06
  1.1360e+04   2.28e-06
  1.1792e+04   1.85e-06
  1.2240e+04   1.48e-06
  1.2706e+04   1.19e-06
  1.3189e+04   9.41e-07
  1.3691e+04   7.32e-07
  1.4212e+04   5.74e-07
  1.4753e+04   4.41e-07
  1.5314e+04   3.31e-07
  1.5897e+04   2.50e-07
  1.6501e+04   1.84e-07
  1.7129e+04   1.32e-07
  1.7781e+04   9.44e-08
  1.8457e+04   6.56e-08
  1.9159e+04   4.39e-08
  1.9888e+04   2.90e-08
  2.0645e+04   1.84e-08
  2.1430e+04   1.11e-08
  2.2245e+04   6.51e-09
  2.3092e+04   3.60e-09
  2.3970e+04   1.86e-09
  2.4882e+04   8.93e-10
  2.5829e+04   3.94e-10
  2.6811e+04   1.55e-10
  2.7831e+04   5.41e-11
  2.8890e+04   1.62e-11
  2.9989e+04   4.05e-12
  3.1130e+04   8.12e-13
  3.2314e+04   1.26e-13
  3.3544e+04   1.40e-14
  3.4820e+04   1.05e-15
  3.6144e+04   4.85e-17
  3.7519e+04   1.22e-18
  3.8947e+04   1.43e-20
  4.0428e+04   6.50e-23
  4.1966e+04   8.80e-26
  4.3563e+04   2.55e-29
  4.5220e+04   1.02e-33
  4.6941e+04   3.13e-39
  4.8726e+04   3.33e-46
  5.0580e+04   1.16e-47
