#  E [GeV]   # per interaction  [GeV^{-1}]
  3.0000e+01   6.50e-01
  3.1123e+01   6.25e-01
  3.2288e+01   6.01e-01
  3.3497e+01   5.78e-01
  3.4751e+01   5.56e-01
  3.6051e+01   5.34e-01
  3.7401e+01   5.14e-01
  3.8801e+01   4.94e-01
  4.0253e+01   4.75e-01
  4.1760e+01   4.56e-01
  4.3324e+01   4.39e-01
  4.4945e+01   4.22e-01
  4.6628e+01   4.05e-01
  4.8373e+01   3.89e-01
  5.0184e+01   3.74e-01
  5.2063e+01   3.59e-01
  5.4011e+01   3.45e-01
  5.6033e+01   3.32e-01
  5.8131e+01   3.18e-01
  6.0307e+01   3.06e-01
  6.2564e+01   2.94e-01
  6.4906e+01   2.82e-01
  6.7336e+01   2.70e-01
  6.9857e+01   2.60e-01
  7.2472e+01   2.49e-01
  7.5184e+01   2.39e-01
  7.7999e+01   2.29e-01
  8.0919e+01   2.20e-01
  8.3948e+01   2.11e-01
  8.7090e+01   2.02e-01
  9.0350e+01   1.94e-01
  9.3732e+01   1.86e-01
  9.7241e+01   1.78e-01
  1.0088e+02   1.70e-01
  1.0466e+02   1.63e-01
  1.0858e+02   1.56e-01
  1.1264e+02   1.49e-01
  1.1686e+02   1.43e-01
  1.2123e+02   1.37e-01
  1.2577e+02   1.31e-01
  1.3048e+02   1.25e-01
  1.3536e+02   1.20e-01
  1.4043e+02   1.14e-01
  1.4568e+02   1.09e-01
  1.5114e+02   1.04e-01
  1.5680e+02   9.94e-02
  1.6266e+02   9.48e-02
  1.6875e+02   9.04e-02
  1.7507e+02   8.62e-02
  1.8162e+02   8.21e-02
  1.8842e+02   7.82e-02
  1.9548e+02   7.45e-02
  2.0279e+02   7.09e-02
  2.1039e+02   6.74e-02
  2.1826e+02   6.41e-02
  2.2643e+02   6.09e-02
  2.3491e+02   5.79e-02
  2.4370e+02   5.49e-02
  2.5282e+02   5.21e-02
  2.6229e+02   4.94e-02
  2.7211e+02   4.68e-02
  2.8229e+02   4.43e-02
  2.9286e+02   4.20e-02
  3.0382e+02   3.97e-02
  3.1519e+02   3.75e-02
  3.2699e+02   3.54e-02
  3.3923e+02   3.34e-02
  3.5193e+02   3.15e-02
  3.6511e+02   2.97e-02
  3.7877e+02   2.80e-02
  3.9295e+02   2.63e-02
  4.0766e+02   2.47e-02
  4.2292e+02   2.33e-02
  4.3875e+02   2.18e-02
  4.5518e+02   2.05e-02
  4.7222e+02   1.92e-02
  4.8989e+02   1.80e-02
  5.0823e+02   1.69e-02
  5.2726e+02   1.58e-02
  5.4699e+02   1.47e-02
  5.6747e+02   1.38e-02
  5.8871e+02   1.29e-02
  6.1075e+02   1.20e-02
  6.3361e+02   1.12e-02
  6.5733e+02   1.04e-02
  6.8194e+02   9.70e-03
  7.0746e+02   9.03e-03
  7.3395e+02   8.40e-03
  7.6142e+02   7.81e-03
  7.8992e+02   7.26e-03
  8.1949e+02   6.75e-03
  8.5017e+02   6.26e-03
  8.8199e+02   5.81e-03
  9.1501e+02   5.39e-03
  9.4926e+02   5.00e-03
  9.8479e+02   4.63e-03
  1.0217e+03   4.29e-03
  1.0599e+03   3.98e-03
  1.0996e+03   3.68e-03
  1.1407e+03   3.40e-03
  1.1834e+03   3.15e-03
  1.2277e+03   2.90e-03
  1.2737e+03   2.68e-03
  1.3214e+03   2.48e-03
  1.3708e+03   2.28e-03
  1.4222e+03   2.11e-03
  1.4754e+03   1.94e-03
  1.5306e+03   1.79e-03
  1.5879e+03   1.65e-03
  1.6474e+03   1.52e-03
  1.7090e+03   1.40e-03
  1.7730e+03   1.29e-03
  1.8394e+03   1.18e-03
  1.9082e+03   1.08e-03
  1.9797e+03   9.96e-04
  2.0538e+03   9.14e-04
  2.1306e+03   8.38e-04
  2.2104e+03   7.67e-04
  2.2931e+03   7.02e-04
  2.3790e+03   6.42e-04
  2.4680e+03   5.86e-04
  2.5604e+03   5.35e-04
  2.6563e+03   4.88e-04
  2.7557e+03   4.44e-04
  2.8589e+03   4.05e-04
  2.9659e+03   3.68e-04
  3.0769e+03   3.34e-04
  3.1921e+03   3.03e-04
  3.3116e+03   2.75e-04
  3.4355e+03   2.48e-04
  3.5641e+03   2.25e-04
  3.6976e+03   2.03e-04
  3.8360e+03   1.83e-04
  3.9796e+03   1.65e-04
  4.1285e+03   1.49e-04
  4.2831e+03   1.33e-04
  4.4434e+03   1.20e-04
  4.6097e+03   1.07e-04
  4.7823e+03   9.55e-05
  4.9613e+03   8.52e-05
  5.1470e+03   7.60e-05
  5.3397e+03   6.74e-05
  5.5396e+03   5.98e-05
  5.7470e+03   5.31e-05
  5.9621e+03   4.68e-05
  6.1853e+03   4.12e-05
  6.4168e+03   3.64e-05
  6.6570e+03   3.19e-05
  6.9062e+03   2.78e-05
  7.1647e+03   2.44e-05
  7.4329e+03   2.13e-05
  7.7112e+03   1.84e-05
  7.9998e+03   1.60e-05
  8.2993e+03   1.38e-05
  8.6100e+03   1.18e-05
  8.9323e+03   1.02e-05
  9.2666e+03   8.70e-06
  9.6135e+03   7.35e-06
  9.9734e+03   6.25e-06
  1.0347e+04   5.28e-06
  1.0734e+04   4.41e-06
  1.1136e+04   3.68e-06
  1.1553e+04   3.06e-06
  1.1985e+04   2.51e-06
  1.2434e+04   2.05e-06
  1.2899e+04   1.68e-06
  1.3382e+04   1.35e-06
  1.3883e+04   1.07e-06
  1.4403e+04   8.53e-07
  1.4942e+04   6.66e-07
  1.5501e+04   5.12e-07
  1.6081e+04   3.94e-07
  1.6683e+04   2.96e-07
  1.7308e+04   2.17e-07
  1.7956e+04   1.59e-07
  1.8628e+04   1.13e-07
  1.9325e+04   7.74e-08
  2.0049e+04   5.27e-08
  2.0799e+04   3.45e-08
  2.1578e+04   2.15e-08
  2.2386e+04   1.31e-08
  2.3224e+04   7.61e-09
  2.4093e+04   4.13e-09
  2.4995e+04   2.13e-09
  2.5930e+04   1.03e-09
  2.6901e+04   4.47e-10
  2.7908e+04   1.77e-10
  2.8953e+04   6.29e-11
  3.0037e+04   1.91e-11
  3.1161e+04   4.88e-12
  3.2327e+04   1.02e-12
  3.3537e+04   1.65e-13
  3.4793e+04   1.94e-14
  3.6095e+04   1.59e-15
  3.7446e+04   8.01e-17
  3.8848e+04   2.24e-18
  4.0302e+04   3.02e-20
  4.1811e+04   1.60e-22
  4.3376e+04   2.60e-25
  4.5000e+04   9.43e-29
