#  E [GeV]   # per interaction  [GeV^{-1}]
  3.0000e+01   1.28e+00
  3.1232e+01   1.22e+00
  3.2514e+01   1.16e+00
  3.3849e+01   1.11e+00
  3.5238e+01   1.05e+00
  3.6685e+01   1.00e+00
  3.8191e+01   9.55e-01
  3.9759e+01   9.10e-01
  4.1391e+01   8.66e-01
  4.3090e+01   8.24e-01
  4.4859e+01   7.84e-01
  4.6701e+01   7.45e-01
  4.8618e+01   7.09e-01
  5.0614e+01   6.74e-01
  5.2692e+01   6.41e-01
  5.4855e+01   6.09e-01
  5.7107e+01   5.79e-01
  5.9451e+01   5.50e-01
  6.1892e+01   5.22e-01
  6.4433e+01   4.96e-01
  6.7078e+01   4.71e-01
  6.9832e+01   4.47e-01
  7.2699e+01   4.24e-01
  7.5683e+01   4.02e-01
  7.8790e+01   3.81e-01
  8.2025e+01   3.61e-01
  8.5392e+01   3.43e-01
  8.8898e+01   3.25e-01
  9.2547e+01   3.08e-01
  9.6347e+01   2.91e-01
  1.0030e+02   2.76e-01
  1.0442e+02   2.61e-01
  1.0871e+02   2.47e-01
  1.1317e+02   2.34e-01
  1.1782e+02   2.21e-01
  1.2265e+02   2.09e-01
  1.2769e+02   1.98e-01
  1.3293e+02   1.87e-01
  1.3839e+02   1.76e-01
  1.4407e+02   1.66e-01
  1.4998e+02   1.57e-01
  1.5614e+02   1.48e-01
  1.6255e+02   1.39e-01
  1.6922e+02   1.31e-01
  1.7617e+02   1.24e-01
  1.8340e+02   1.16e-01
  1.9093e+02   1.09e-01
  1.9877e+02   1.03e-01
  2.0693e+02   9.65e-02
  2.1543e+02   9.05e-02
  2.2427e+02   8.49e-02
  2.3348e+02   7.95e-02
  2.4306e+02   7.45e-02
  2.5304e+02   6.96e-02
  2.6343e+02   6.51e-02
  2.7424e+02   6.07e-02
  2.8550e+02   5.66e-02
  2.9722e+02   5.27e-02
  3.0942e+02   4.91e-02
  3.2213e+02   4.56e-02
  3.3535e+02   4.24e-02
  3.4912e+02   3.93e-02
  3.6345e+02   3.64e-02
  3.7837e+02   3.37e-02
  3.9390e+02   3.11e-02
  4.1008e+02   2.87e-02
  4.2691e+02   2.65e-02
  4.4444e+02   2.44e-02
  4.6268e+02   2.25e-02
  4.8168e+02   2.06e-02
  5.0145e+02   1.89e-02
  5.2204e+02   1.74e-02
  5.4347e+02   1.59e-02
  5.6578e+02   1.46e-02
  5.8901e+02   1.33e-02
  6.1319e+02   1.22e-02
  6.3836e+02   1.11e-02
  6.6457e+02   1.01e-02
  6.9185e+02   9.23e-03
  7.2025e+02   8.40e-03
  7.4982e+02   7.65e-03
  7.8061e+02   6.96e-03
  8.1265e+02   6.33e-03
  8.4601e+02   5.76e-03
  8.8075e+02   5.23e-03
  9.1690e+02   4.76e-03
  9.5455e+02   4.32e-03
  9.9373e+02   3.93e-03
  1.0345e+03   3.57e-03
  1.0770e+03   3.24e-03
  1.1212e+03   2.95e-03
  1.1672e+03   2.68e-03
  1.2152e+03   2.43e-03
  1.2650e+03   2.21e-03
  1.3170e+03   2.01e-03
  1.3711e+03   1.83e-03
  1.4273e+03   1.67e-03
  1.4859e+03   1.52e-03
  1.5469e+03   1.39e-03
  1.6104e+03   1.27e-03
  1.6766e+03   1.16e-03
  1.7454e+03   1.06e-03
  1.8170e+03   9.64e-04
  1.8916e+03   8.80e-04
  1.9693e+03   8.03e-04
  2.0501e+03   7.33e-04
  2.1343e+03   6.69e-04
  2.2219e+03   6.09e-04
  2.3131e+03   5.55e-04
  2.4081e+03   5.05e-04
  2.5070e+03   4.59e-04
  2.6099e+03   4.17e-04
  2.7170e+03   3.78e-04
  2.8286e+03   3.43e-04
  2.9447e+03   3.10e-04
  3.0656e+03   2.80e-04
  3.1914e+03   2.53e-04
  3.3225e+03   2.27e-04
  3.4589e+03   2.04e-04
  3.6008e+03   1.83e-04
  3.7487e+03   1.63e-04
  3.9026e+03   1.46e-04
  4.0628e+03   1.29e-04
  4.2296e+03   1.14e-04
  4.4032e+03   1.01e-04
  4.5840e+03   8.86e-05
  4.7722e+03   7.76e-05
  4.9681e+03   6.76e-05
  5.1720e+03   5.86e-05
  5.3844e+03   5.06e-05
  5.6054e+03   4.34e-05
  5.8355e+03   3.70e-05
  6.0751e+03   3.15e-05
  6.3245e+03   2.65e-05
  6.5841e+03   2.21e-05
  6.8544e+03   1.84e-05
  7.1358e+03   1.51e-05
  7.4288e+03   1.24e-05
  7.7338e+03   1.00e-05
  8.0513e+03   7.98e-06
  8.3818e+03   6.31e-06
  8.7259e+03   4.93e-06
  9.0841e+03   3.78e-06
  9.4571e+03   2.87e-06
  9.8453e+03   2.14e-06
  1.0249e+04   1.56e-06
  1.0670e+04   1.13e-06
  1.1108e+04   7.94e-07
  1.1564e+04   5.42e-07
  1.2039e+04   3.65e-07
  1.2533e+04   2.37e-07
  1.3048e+04   1.48e-07
  1.3584e+04   9.05e-08
  1.4141e+04   5.27e-08
  1.4722e+04   2.92e-08
  1.5326e+04   1.56e-08
  1.5955e+04   7.76e-09
  1.6610e+04   3.63e-09
  1.7292e+04   1.59e-09
  1.8002e+04   6.31e-10
  1.8741e+04   2.30e-10
  1.9511e+04   7.53e-11
  2.0312e+04   2.15e-11
  2.1145e+04   5.36e-12
  2.2013e+04   1.13e-12
  2.2917e+04   1.93e-13
  2.3858e+04   2.68e-14
  2.4837e+04   2.83e-15
  2.5857e+04   2.14e-16
  2.6919e+04   1.15e-17
  2.8024e+04   3.90e-19
  2.9174e+04   7.73e-21
  3.0372e+04   8.32e-23
  3.1619e+04   4.11e-25
  3.2917e+04   7.95e-28
  3.4268e+04   5.06e-31
  3.5675e+04   7.88e-35
  3.7140e+04   2.20e-39
  3.8664e+04   7.37e-45
  4.0252e+04   2.95e-47
  4.1904e+04   2.54e-47
  4.3624e+04   2.21e-47
  4.5415e+04   1.91e-47
  4.7280e+04   1.67e-47
  4.9221e+04   1.47e-47
  5.1241e+04   1.29e-47
  5.3345e+04   1.15e-47
  5.5535e+04   1.02e-47
  5.7815e+04   9.05e-48
  6.0188e+04   8.15e-48
  6.2659e+04   7.31e-48
  6.5232e+04   6.53e-48
  6.7910e+04   5.85e-48
  7.0698e+04   5.22e-48
  7.3600e+04   4.63e-48
  7.6621e+04   4.06e-48
  7.9767e+04   3.54e-48
  8.3042e+04   3.07e-48
  8.6451e+04   2.68e-48
  9.0000e+04   2.31e-48
