#  E [MeV]   Flux [# cm^{-2} s^{-1}  MeV^{-1}]
  3.0000e+04   1.10e-20
  3.1123e+04   1.05e-20
  3.2288e+04   1.01e-20
  3.3497e+04   9.73e-21
  3.4751e+04   9.34e-21
  3.6051e+04   8.97e-21
  3.7401e+04   8.62e-21
  3.8801e+04   8.28e-21
  4.0253e+04   7.95e-21
  4.1760e+04   7.63e-21
  4.3324e+04   7.33e-21
  4.4945e+04   7.04e-21
  4.6628e+04   6.76e-21
  4.8373e+04   6.49e-21
  5.0184e+04   6.22e-21
  5.2063e+04   5.97e-21
  5.4011e+04   5.73e-21
  5.6033e+04   5.50e-21
  5.8131e+04   5.28e-21
  6.0307e+04   5.06e-21
  6.2564e+04   4.85e-21
  6.4906e+04   4.66e-21
  6.7336e+04   4.46e-21
  6.9857e+04   4.28e-21
  7.2472e+04   4.10e-21
  7.5184e+04   3.93e-21
  7.7999e+04   3.77e-21
  8.0919e+04   3.61e-21
  8.3948e+04   3.46e-21
  8.7090e+04   3.31e-21
  9.0350e+04   3.17e-21
  9.3732e+04   3.03e-21
  9.7241e+04   2.90e-21
  1.0088e+05   2.78e-21
  1.0466e+05   2.66e-21
  1.0858e+05   2.54e-21
  1.1264e+05   2.43e-21
  1.1686e+05   2.32e-21
  1.2123e+05   2.22e-21
  1.2577e+05   2.12e-21
  1.3048e+05   2.03e-21
  1.3536e+05   1.93e-21
  1.4043e+05   1.85e-21
  1.4568e+05   1.76e-21
  1.5114e+05   1.68e-21
  1.5680e+05   1.60e-21
  1.6266e+05   1.53e-21
  1.6875e+05   1.45e-21
  1.7507e+05   1.38e-21
  1.8162e+05   1.32e-21
  1.8842e+05   1.25e-21
  1.9548e+05   1.19e-21
  2.0279e+05   1.13e-21
  2.1039e+05   1.07e-21
  2.1826e+05   1.02e-21
  2.2643e+05   9.68e-22
  2.3491e+05   9.18e-22
  2.4370e+05   8.70e-22
  2.5282e+05   8.24e-22
  2.6229e+05   7.80e-22
  2.7211e+05   7.38e-22
  2.8229e+05   6.97e-22
  2.9286e+05   6.59e-22
  3.0382e+05   6.22e-22
  3.1519e+05   5.86e-22
  3.2699e+05   5.52e-22
  3.3923e+05   5.20e-22
  3.5193e+05   4.89e-22
  3.6511e+05   4.60e-22
  3.7877e+05   4.32e-22
  3.9295e+05   4.06e-22
  4.0766e+05   3.81e-22
  4.2292e+05   3.57e-22
  4.3875e+05   3.34e-22
  4.5518e+05   3.13e-22
  4.7222e+05   2.92e-22
  4.8989e+05   2.73e-22
  5.0823e+05   2.55e-22
  5.2726e+05   2.38e-22
  5.4699e+05   2.22e-22
  5.6747e+05   2.07e-22
  5.8871e+05   1.92e-22
  6.1075e+05   1.79e-22
  6.3361e+05   1.66e-22
  6.5733e+05   1.55e-22
  6.8194e+05   1.44e-22
  7.0746e+05   1.33e-22
  7.3395e+05   1.24e-22
  7.6142e+05   1.15e-22
  7.8992e+05   1.06e-22
  8.1949e+05   9.85e-23
  8.5017e+05   9.12e-23
  8.8199e+05   8.44e-23
  9.1501e+05   7.81e-23
  9.4926e+05   7.23e-23
  9.8479e+05   6.69e-23
  1.0217e+06   6.19e-23
  1.0599e+06   5.72e-23
  1.0996e+06   5.29e-23
  1.1407e+06   4.88e-23
  1.1834e+06   4.51e-23
  1.2277e+06   4.17e-23
  1.2737e+06   3.85e-23
  1.3214e+06   3.55e-23
  1.3708e+06   3.28e-23
  1.4222e+06   3.03e-23
  1.4754e+06   2.79e-23
  1.5306e+06   2.58e-23
  1.5879e+06   2.38e-23
  1.6474e+06   2.19e-23
  1.7090e+06   2.02e-23
  1.7730e+06   1.86e-23
  1.8394e+06   1.72e-23
  1.9082e+06   1.58e-23
  1.9797e+06   1.45e-23
  2.0538e+06   1.34e-23
  2.1306e+06   1.23e-23
  2.2104e+06   1.13e-23
  2.2931e+06   1.04e-23
  2.3790e+06   9.53e-24
  2.4680e+06   8.75e-24
  2.5604e+06   8.02e-24
  2.6563e+06   7.34e-24
  2.7557e+06   6.72e-24
  2.8589e+06   6.15e-24
  2.9659e+06   5.61e-24
  3.0769e+06   5.12e-24
  3.1921e+06   4.67e-24
  3.3116e+06   4.25e-24
  3.4355e+06   3.87e-24
  3.5641e+06   3.52e-24
  3.6976e+06   3.19e-24
  3.8360e+06   2.89e-24
  3.9796e+06   2.61e-24
  4.1285e+06   2.36e-24
  4.2831e+06   2.12e-24
  4.4434e+06   1.91e-24
  4.6097e+06   1.72e-24
  4.7823e+06   1.54e-24
  4.9613e+06   1.38e-24
  5.1470e+06   1.23e-24
  5.3397e+06   1.09e-24
  5.5396e+06   9.71e-25
  5.7470e+06   8.60e-25
  5.9621e+06   7.58e-25
  6.1853e+06   6.69e-25
  6.4168e+06   5.88e-25
  6.6570e+06   5.13e-25
  6.9062e+06   4.48e-25
  7.1647e+06   3.90e-25
  7.4329e+06   3.36e-25
  7.7112e+06   2.90e-25
  7.9998e+06   2.49e-25
  8.2993e+06   2.13e-25
  8.6100e+06   1.80e-25
  8.9323e+06   1.53e-25
  9.2666e+06   1.28e-25
  9.6135e+06   1.06e-25
  9.9734e+06   8.84e-26
  1.0347e+07   7.26e-26
  1.0734e+07   5.88e-26
  1.1136e+07   4.78e-26
  1.1553e+07   3.83e-26
  1.1985e+07   3.01e-26
  1.2434e+07   2.37e-26
  1.2899e+07   1.84e-26
  1.3382e+07   1.39e-26
  1.3883e+07   1.05e-26
  1.4403e+07   7.79e-27
  1.4942e+07   5.62e-27
  1.5501e+07   4.01e-27
  1.6081e+07   2.80e-27
  1.6683e+07   1.89e-27
  1.7308e+07   1.25e-27
  1.7956e+07   7.99e-28
  1.8628e+07   4.89e-28
  1.9325e+07   2.88e-28
  2.0049e+07   1.64e-28
  2.0799e+07   8.73e-29
  2.1578e+07   4.37e-29
  2.2386e+07   2.08e-29
  2.3224e+07   9.02e-30
  2.4093e+07   3.53e-30
  2.4995e+07   1.28e-30
  2.5930e+07   4.03e-31
  2.6901e+07   1.08e-31
  2.7908e+07   2.50e-32
  2.8953e+07   4.67e-33
  3.0037e+07   6.70e-34
  3.1161e+07   7.34e-35
  3.2327e+07   5.59e-36
  3.3537e+07   2.71e-37
  3.4793e+07   7.95e-39
  3.6095e+07   1.23e-40
  3.7446e+07   8.35e-43
  3.8848e+07   2.12e-45
  4.0302e+07   1.55e-48
  4.1811e+07   2.30e-52
  4.3376e+07   4.64e-57
  4.5000e+07   7.46e-63
