#  E [GeV]   # per interaction  [GeV^{-1}]
  3.0000e+01   2.44e-01
  3.0589e+01   2.36e-01
  3.1190e+01   2.28e-01
  3.1803e+01   2.20e-01
  3.2428e+01   2.13e-01
  3.3065e+01   2.05e-01
  3.3714e+01   1.98e-01
  3.4376e+01   1.91e-01
  3.5052e+01   1.84e-01
  3.5740e+01   1.78e-01
  3.6442e+01   1.71e-01
  3.7158e+01   1.65e-01
  3.7888e+01   1.59e-01
  3.8632e+01   1.54e-01
  3.9391e+01   1.48e-01
  4.0165e+01   1.42e-01
  4.0954e+01   1.37e-01
  4.1758e+01   1.32e-01
  4.2579e+01   1.27e-01
  4.3415e+01   1.22e-01
  4.4268e+01   1.18e-01
  4.5138e+01   1.13e-01
  4.6024e+01   1.09e-01
  4.6928e+01   1.05e-01
  4.7850e+01   1.01e-01
  4.8790e+01   9.68e-02
  4.9749e+01   9.30e-02
  5.0726e+01   8.93e-02
  5.1722e+01   8.58e-02
  5.2738e+01   8.24e-02
  5.3774e+01   7.91e-02
  5.4831e+01   7.59e-02
  5.5908e+01   7.28e-02
  5.7006e+01   6.99e-02
  5.8126e+01   6.71e-02
  5.9268e+01   6.43e-02
  6.0432e+01   6.17e-02
  6.1619e+01   5.91e-02
  6.2829e+01   5.66e-02
  6.4064e+01   5.42e-02
  6.5322e+01   5.20e-02
  6.6605e+01   4.98e-02
  6.7913e+01   4.76e-02
  6.9248e+01   4.56e-02
  7.0608e+01   4.36e-02
  7.1995e+01   4.17e-02
  7.3409e+01   3.99e-02
  7.4851e+01   3.81e-02
  7.6321e+01   3.64e-02
  7.7821e+01   3.48e-02
  7.9349e+01   3.32e-02
  8.0908e+01   3.17e-02
  8.2497e+01   3.03e-02
  8.4118e+01   2.89e-02
  8.5770e+01   2.75e-02
  8.7455e+01   2.62e-02
  8.9173e+01   2.50e-02
  9.0925e+01   2.38e-02
  9.2711e+01   2.27e-02
  9.4532e+01   2.17e-02
  9.6389e+01   2.06e-02
  9.8283e+01   1.96e-02
  1.0021e+02   1.86e-02
  1.0218e+02   1.77e-02
  1.0419e+02   1.69e-02
  1.0624e+02   1.61e-02
  1.0832e+02   1.53e-02
  1.1045e+02   1.45e-02
  1.1262e+02   1.37e-02
  1.1483e+02   1.31e-02
  1.1709e+02   1.24e-02
  1.1939e+02   1.18e-02
  1.2173e+02   1.12e-02
  1.2412e+02   1.06e-02
  1.2656e+02   1.00e-02
  1.2905e+02   9.51e-03
  1.3158e+02   9.02e-03
  1.3417e+02   8.55e-03
  1.3680e+02   8.08e-03
  1.3949e+02   7.64e-03
  1.4223e+02   7.22e-03
  1.4503e+02   6.84e-03
  1.4787e+02   6.47e-03
  1.5078e+02   6.12e-03
  1.5374e+02   5.77e-03
  1.5676e+02   5.44e-03
  1.5984e+02   5.13e-03
  1.6298e+02   4.85e-03
  1.6618e+02   4.58e-03
  1.6945e+02   4.32e-03
  1.7278e+02   4.07e-03
  1.7617e+02   3.82e-03
  1.7963e+02   3.60e-03
  1.8316e+02   3.40e-03
  1.8676e+02   3.20e-03
  1.9042e+02   3.01e-03
  1.9417e+02   2.83e-03
  1.9798e+02   2.65e-03
  2.0187e+02   2.50e-03
  2.0583e+02   2.35e-03
  2.0988e+02   2.21e-03
  2.1400e+02   2.08e-03
  2.1820e+02   1.95e-03
  2.2249e+02   1.82e-03
  2.2686e+02   1.71e-03
  2.3132e+02   1.61e-03
  2.3586e+02   1.51e-03
  2.4049e+02   1.42e-03
  2.4522e+02   1.33e-03
  2.5004e+02   1.24e-03
  2.5495e+02   1.16e-03
  2.5996e+02   1.09e-03
  2.6506e+02   1.02e-03
  2.7027e+02   9.55e-04
  2.7558e+02   8.91e-04
  2.8099e+02   8.29e-04
  2.8651e+02   7.78e-04
  2.9214e+02   7.29e-04
  2.9788e+02   6.81e-04
  3.0373e+02   6.35e-04
  3.0970e+02   5.91e-04
  3.1578e+02   5.49e-04
  3.2198e+02   5.14e-04
  3.2831e+02   4.81e-04
  3.3476e+02   4.49e-04
  3.4133e+02   4.18e-04
  3.4804e+02   3.89e-04
  3.5487e+02   3.60e-04
  3.6185e+02   3.37e-04
  3.6895e+02   3.15e-04
  3.7620e+02   2.94e-04
  3.8359e+02   2.73e-04
  3.9113e+02   2.53e-04
  3.9881e+02   2.35e-04
  4.0664e+02   2.20e-04
  4.1463e+02   2.05e-04
  4.2278e+02   1.91e-04
  4.3108e+02   1.77e-04
  4.3955e+02   1.64e-04
  4.4818e+02   1.52e-04
  4.5699e+02   1.42e-04
  4.6596e+02   1.33e-04
  4.7512e+02   1.24e-04
  4.8445e+02   1.15e-04
  4.9397e+02   1.06e-04
  5.0367e+02   9.83e-05
  5.1356e+02   9.19e-05
  5.2365e+02   8.57e-05
  5.3394e+02   7.97e-05
  5.4443e+02   7.39e-05
  5.5512e+02   6.83e-05
  5.6603e+02   6.33e-05
  5.7715e+02   5.92e-05
  5.8848e+02   5.51e-05
  6.0004e+02   5.13e-05
  6.1183e+02   4.75e-05
  6.2385e+02   4.39e-05
  6.3610e+02   4.07e-05
  6.4860e+02   3.80e-05
  6.6134e+02   3.54e-05
  6.7433e+02   3.29e-05
  6.8758e+02   3.04e-05
  7.0108e+02   2.80e-05
  7.1486e+02   2.61e-05
  7.2890e+02   2.44e-05
  7.4322e+02   2.27e-05
  7.5782e+02   2.11e-05
  7.7270e+02   1.96e-05
  7.8788e+02   1.81e-05
  8.0336e+02   1.69e-05
  8.1914e+02   1.59e-05
  8.3523e+02   1.49e-05
  8.5164e+02   1.39e-05
  8.6837e+02   1.30e-05
  8.8542e+02   1.21e-05
  9.0282e+02   1.14e-05
  9.2055e+02   1.09e-05
  9.3863e+02   1.03e-05
  9.5707e+02   9.77e-06
  9.7587e+02   9.25e-06
  9.9504e+02   8.75e-06
  1.0146e+03   8.40e-06
  1.0345e+03   8.08e-06
  1.0548e+03   7.77e-06
  1.0756e+03   7.47e-06
  1.0967e+03   7.18e-06
  1.1182e+03   6.90e-06
  1.1402e+03   6.71e-06
  1.1626e+03   6.53e-06
  1.1854e+03   6.36e-06
  1.2087e+03   6.19e-06
  1.2325e+03   6.03e-06
  1.2567e+03   5.87e-06
  1.2814e+03   5.75e-06
  1.3065e+03   5.63e-06
  1.3322e+03   5.52e-06
  1.3584e+03   5.41e-06
  1.3851e+03   5.30e-06
  1.4123e+03   5.19e-06
  1.4400e+03   5.09e-06
