#  E [MeV]   Flux [# cm^{-2} s^{-1}  MeV^{-1}]
  3.0000e+04   1.87e-21
  3.0854e+04   1.80e-21
  3.1733e+04   1.73e-21
  3.2636e+04   1.67e-21
  3.3566e+04   1.61e-21
  3.4521e+04   1.55e-21
  3.5504e+04   1.49e-21
  3.6515e+04   1.44e-21
  3.7555e+04   1.39e-21
  3.8625e+04   1.34e-21
  3.9724e+04   1.29e-21
  4.0855e+04   1.24e-21
  4.2019e+04   1.19e-21
  4.3215e+04   1.15e-21
  4.4446e+04   1.10e-21
  4.5711e+04   1.06e-21
  4.7013e+04   1.02e-21
  4.8352e+04   9.83e-22
  4.9728e+04   9.46e-22
  5.1144e+04   9.09e-22
  5.2601e+04   8.75e-22
  5.4099e+04   8.41e-22
  5.5639e+04   8.08e-22
  5.7223e+04   7.77e-22
  5.8853e+04   7.46e-22
  6.0528e+04   7.17e-22
  6.2252e+04   6.89e-22
  6.4025e+04   6.62e-22
  6.5848e+04   6.36e-22
  6.7723e+04   6.11e-22
  6.9651e+04   5.87e-22
  7.1634e+04   5.63e-22
  7.3674e+04   5.41e-22
  7.5772e+04   5.19e-22
  7.7929e+04   4.99e-22
  8.0148e+04   4.79e-22
  8.2431e+04   4.59e-22
  8.4778e+04   4.41e-22
  8.7192e+04   4.23e-22
  8.9674e+04   4.06e-22
  9.2228e+04   3.89e-22
  9.4854e+04   3.73e-22
  9.7555e+04   3.58e-22
  1.0033e+05   3.43e-22
  1.0319e+05   3.29e-22
  1.0613e+05   3.16e-22
  1.0915e+05   3.03e-22
  1.1226e+05   2.90e-22
  1.1545e+05   2.78e-22
  1.1874e+05   2.67e-22
  1.2212e+05   2.56e-22
  1.2560e+05   2.45e-22
  1.2918e+05   2.35e-22
  1.3286e+05   2.25e-22
  1.3664e+05   2.15e-22
  1.4053e+05   2.06e-22
  1.4453e+05   1.98e-22
  1.4865e+05   1.89e-22
  1.5288e+05   1.81e-22
  1.5723e+05   1.74e-22
  1.6171e+05   1.66e-22
  1.6631e+05   1.59e-22
  1.7105e+05   1.53e-22
  1.7592e+05   1.46e-22
  1.8093e+05   1.40e-22
  1.8608e+05   1.34e-22
  1.9138e+05   1.28e-22
  1.9683e+05   1.23e-22
  2.0243e+05   1.17e-22
  2.0820e+05   1.12e-22
  2.1413e+05   1.07e-22
  2.2022e+05   1.03e-22
  2.2649e+05   9.82e-23
  2.3294e+05   9.39e-23
  2.3958e+05   8.98e-23
  2.4640e+05   8.59e-23
  2.5341e+05   8.21e-23
  2.6063e+05   7.85e-23
  2.6805e+05   7.50e-23
  2.7568e+05   7.17e-23
  2.8353e+05   6.86e-23
  2.9161e+05   6.55e-23
  2.9991e+05   6.26e-23
  3.0845e+05   5.98e-23
  3.1723e+05   5.72e-23
  3.2627e+05   5.46e-23
  3.3556e+05   5.22e-23
  3.4511e+05   4.98e-23
  3.5494e+05   4.76e-23
  3.6504e+05   4.55e-23
  3.7544e+05   4.34e-23
  3.8613e+05   4.15e-23
  3.9712e+05   3.96e-23
  4.0843e+05   3.78e-23
  4.2006e+05   3.61e-23
  4.3202e+05   3.44e-23
  4.4432e+05   3.29e-23
  4.5698e+05   3.14e-23
  4.6999e+05   2.99e-23
  4.8337e+05   2.86e-23
  4.9713e+05   2.73e-23
  5.1129e+05   2.60e-23
  5.2585e+05   2.48e-23
  5.4082e+05   2.37e-23
  5.5622e+05   2.26e-23
  5.7206e+05   2.16e-23
  5.8835e+05   2.06e-23
  6.0510e+05   1.96e-23
  6.2233e+05   1.87e-23
  6.4005e+05   1.79e-23
  6.5828e+05   1.70e-23
  6.7702e+05   1.63e-23
  6.9630e+05   1.55e-23
  7.1613e+05   1.48e-23
  7.3652e+05   1.41e-23
  7.5749e+05   1.35e-23
  7.7906e+05   1.29e-23
  8.0124e+05   1.23e-23
  8.2406e+05   1.17e-23
  8.4752e+05   1.12e-23
  8.7165e+05   1.07e-23
  8.9647e+05   1.02e-23
  9.2200e+05   9.72e-24
  9.4825e+05   9.29e-24
  9.7526e+05   8.87e-24
  1.0030e+06   8.48e-24
  1.0316e+06   8.11e-24
  1.0610e+06   7.75e-24
  1.0912e+06   7.41e-24
  1.1222e+06   7.09e-24
  1.1542e+06   6.78e-24
  1.1871e+06   6.49e-24
  1.2209e+06   6.21e-24
  1.2556e+06   5.95e-24
  1.2914e+06   5.69e-24
  1.3281e+06   5.45e-24
  1.3660e+06   5.22e-24
  1.4049e+06   5.00e-24
  1.4449e+06   4.79e-24
  1.4860e+06   4.59e-24
  1.5283e+06   4.40e-24
  1.5718e+06   4.22e-24
  1.6166e+06   4.04e-24
  1.6626e+06   3.88e-24
  1.7100e+06   3.72e-24
  1.7587e+06   3.57e-24
  1.8087e+06   3.42e-24
  1.8602e+06   3.28e-24
  1.9132e+06   3.15e-24
  1.9677e+06   3.02e-24
  2.0237e+06   2.90e-24
  2.0813e+06   2.78e-24
  2.1406e+06   2.67e-24
  2.2016e+06   2.56e-24
  2.2642e+06   2.45e-24
  2.3287e+06   2.35e-24
  2.3950e+06   2.26e-24
  2.4632e+06   2.16e-24
  2.5334e+06   2.07e-24
  2.6055e+06   1.99e-24
  2.6797e+06   1.90e-24
  2.7560e+06   1.82e-24
  2.8345e+06   1.75e-24
  2.9152e+06   1.67e-24
  2.9982e+06   1.60e-24
  3.0836e+06   1.53e-24
  3.1714e+06   1.46e-24
  3.2617e+06   1.40e-24
  3.3545e+06   1.34e-24
  3.4501e+06   1.28e-24
  3.5483e+06   1.22e-24
  3.6493e+06   1.16e-24
  3.7532e+06   1.11e-24
  3.8601e+06   1.06e-24
  3.9700e+06   1.01e-24
  4.0831e+06   9.60e-25
  4.1993e+06   9.14e-25
  4.3189e+06   8.69e-25
  4.4419e+06   8.27e-25
  4.5684e+06   7.85e-25
  4.6985e+06   7.46e-25
  4.8322e+06   7.07e-25
  4.9698e+06   6.71e-25
  5.1114e+06   6.36e-25
  5.2569e+06   6.02e-25
  5.4066e+06   5.69e-25
  5.5605e+06   5.38e-25
  5.7189e+06   5.08e-25
  5.8817e+06   4.79e-25
  6.0492e+06   4.52e-25
  6.2214e+06   4.25e-25
  6.3986e+06   3.99e-25
  6.5808e+06   3.75e-25
  6.7682e+06   3.51e-25
  6.9609e+06   3.28e-25
  7.1591e+06   3.06e-25
  7.3630e+06   2.85e-25
  7.5726e+06   2.65e-25
  7.7882e+06   2.47e-25
  8.0100e+06   2.30e-25
