#  E [MeV]   Flux [# cm^{-2} s^{-1}  MeV^{-1}]
  3.0000e+04   1.11e-19
  3.0943e+04   1.07e-19
  3.1916e+04   1.03e-19
  3.2920e+04   9.87e-20
  3.3955e+04   9.48e-20
  3.5023e+04   9.11e-20
  3.6124e+04   8.74e-20
  3.7260e+04   8.39e-20
  3.8432e+04   8.05e-20
  3.9640e+04   7.73e-20
  4.0887e+04   7.42e-20
  4.2172e+04   7.12e-20
  4.3499e+04   6.83e-20
  4.4866e+04   6.55e-20
  4.6277e+04   6.28e-20
  4.7732e+04   6.02e-20
  4.9233e+04   5.77e-20
  5.0781e+04   5.53e-20
  5.2378e+04   5.30e-20
  5.4025e+04   5.07e-20
  5.5724e+04   4.86e-20
  5.7476e+04   4.66e-20
  5.9284e+04   4.46e-20
  6.1148e+04   4.27e-20
  6.3071e+04   4.08e-20
  6.5054e+04   3.91e-20
  6.7100e+04   3.74e-20
  6.9210e+04   3.58e-20
  7.1386e+04   3.42e-20
  7.3631e+04   3.27e-20
  7.5946e+04   3.13e-20
  7.8334e+04   2.99e-20
  8.0797e+04   2.86e-20
  8.3338e+04   2.73e-20
  8.5959e+04   2.61e-20
  8.8662e+04   2.49e-20
  9.1450e+04   2.38e-20
  9.4325e+04   2.27e-20
  9.7291e+04   2.16e-20
  1.0035e+05   2.06e-20
  1.0351e+05   1.97e-20
  1.0676e+05   1.87e-20
  1.1012e+05   1.78e-20
  1.1358e+05   1.70e-20
  1.1715e+05   1.62e-20
  1.2084e+05   1.54e-20
  1.2464e+05   1.47e-20
  1.2856e+05   1.40e-20
  1.3260e+05   1.33e-20
  1.3677e+05   1.26e-20
  1.4107e+05   1.20e-20
  1.4550e+05   1.14e-20
  1.5008e+05   1.08e-20
  1.5480e+05   1.03e-20
  1.5967e+05   9.76e-21
  1.6469e+05   9.27e-21
  1.6987e+05   8.79e-21
  1.7521e+05   8.34e-21
  1.8072e+05   7.91e-21
  1.8640e+05   7.50e-21
  1.9226e+05   7.11e-21
  1.9831e+05   6.73e-21
  2.0454e+05   6.37e-21
  2.1097e+05   6.04e-21
  2.1761e+05   5.71e-21
  2.2445e+05   5.40e-21
  2.3151e+05   5.11e-21
  2.3879e+05   4.83e-21
  2.4630e+05   4.56e-21
  2.5404e+05   4.31e-21
  2.6203e+05   4.07e-21
  2.7027e+05   3.84e-21
  2.7877e+05   3.63e-21
  2.8753e+05   3.42e-21
  2.9657e+05   3.23e-21
  3.0590e+05   3.04e-21
  3.1552e+05   2.86e-21
  3.2544e+05   2.69e-21
  3.3567e+05   2.54e-21
  3.4623e+05   2.38e-21
  3.5712e+05   2.24e-21
  3.6835e+05   2.10e-21
  3.7993e+05   1.98e-21
  3.9188e+05   1.85e-21
  4.0420e+05   1.74e-21
  4.1691e+05   1.63e-21
  4.3002e+05   1.52e-21
  4.4354e+05   1.43e-21
  4.5749e+05   1.34e-21
  4.7187e+05   1.25e-21
  4.8671e+05   1.17e-21
  5.0202e+05   1.09e-21
  5.1780e+05   1.02e-21
  5.3409e+05   9.49e-22
  5.5088e+05   8.84e-22
  5.6820e+05   8.24e-22
  5.8607e+05   7.68e-22
  6.0450e+05   7.14e-22
  6.2351e+05   6.63e-22
  6.4311e+05   6.17e-22
  6.6334e+05   5.73e-22
  6.8419e+05   5.32e-22
  7.0571e+05   4.93e-22
  7.2790e+05   4.57e-22
  7.5079e+05   4.23e-22
  7.7440e+05   3.91e-22
  7.9875e+05   3.61e-22
  8.2387e+05   3.34e-22
  8.4977e+05   3.08e-22
  8.7649e+05   2.84e-22
  9.0405e+05   2.62e-22
  9.3248e+05   2.42e-22
  9.6180e+05   2.22e-22
  9.9205e+05   2.04e-22
  1.0232e+06   1.88e-22
  1.0554e+06   1.73e-22
  1.0886e+06   1.58e-22
  1.1228e+06   1.45e-22
  1.1581e+06   1.33e-22
  1.1946e+06   1.22e-22
  1.2321e+06   1.11e-22
  1.2709e+06   1.02e-22
  1.3108e+06   9.30e-23
  1.3521e+06   8.48e-23
  1.3946e+06   7.70e-23
  1.4384e+06   7.04e-23
  1.4837e+06   6.41e-23
  1.5303e+06   5.82e-23
  1.5784e+06   5.27e-23
  1.6281e+06   4.80e-23
  1.6793e+06   4.36e-23
  1.7321e+06   3.94e-23
  1.7865e+06   3.56e-23
  1.8427e+06   3.23e-23
  1.9006e+06   2.92e-23
  1.9604e+06   2.63e-23
  2.0221e+06   2.38e-23
  2.0856e+06   2.15e-23
  2.1512e+06   1.93e-23
  2.2189e+06   1.73e-23
  2.2886e+06   1.57e-23
  2.3606e+06   1.41e-23
  2.4348e+06   1.26e-23
  2.5114e+06   1.13e-23
  2.5904e+06   1.02e-23
  2.6718e+06   9.13e-24
  2.7558e+06   8.13e-24
  2.8425e+06   7.28e-24
  2.9319e+06   6.53e-24
  3.0241e+06   5.83e-24
  3.1192e+06   5.16e-24
  3.2173e+06   4.63e-24
  3.3184e+06   4.14e-24
  3.4228e+06   3.68e-24
  3.5304e+06   3.25e-24
  3.6414e+06   2.92e-24
  3.7559e+06   2.60e-24
  3.8740e+06   2.30e-24
  3.9958e+06   2.04e-24
  4.1215e+06   1.83e-24
  4.2511e+06   1.63e-24
  4.3848e+06   1.44e-24
  4.5227e+06   1.28e-24
  4.6649e+06   1.15e-24
  4.8116e+06   1.02e-24
  4.9629e+06   9.00e-25
  5.1189e+06   8.10e-25
  5.2799e+06   7.25e-25
  5.4459e+06   6.45e-25
  5.6171e+06   5.73e-25
  5.7938e+06   5.18e-25
  5.9760e+06   4.66e-25
  6.1639e+06   4.17e-25
  6.3577e+06   3.75e-25
  6.5576e+06   3.41e-25
  6.7638e+06   3.09e-25
  6.9765e+06   2.78e-25
  7.1959e+06   2.53e-25
  7.4222e+06   2.31e-25
  7.6556e+06   2.10e-25
  7.8963e+06   1.91e-25
  8.1446e+06   1.75e-25
  8.4007e+06   1.60e-25
  8.6649e+06   1.46e-25
  8.9373e+06   1.34e-25
  9.2184e+06   1.23e-25
  9.5082e+06   1.13e-25
  9.8072e+06   1.04e-25
  1.0116e+07   9.57e-26
  1.0434e+07   8.82e-26
  1.0762e+07   8.11e-26
  1.1100e+07   7.44e-26
  1.1449e+07   6.83e-26
  1.1809e+07   6.25e-26
  1.2181e+07   5.70e-26
  1.2564e+07   5.19e-26
  1.2959e+07   4.69e-26
  1.3366e+07   4.23e-26
  1.3786e+07   3.79e-26
  1.4220e+07   3.43e-26
