#  E [MeV]   Flux [# cm^{-2} s^{-1}  MeV^{-1}]
  3.0000e+04   3.92e-25
  3.1051e+04   3.78e-25
  3.2139e+04   3.63e-25
  3.3266e+04   3.50e-25
  3.4432e+04   3.37e-25
  3.5638e+04   3.24e-25
  3.6887e+04   3.11e-25
  3.8180e+04   3.00e-25
  3.9518e+04   2.88e-25
  4.0903e+04   2.77e-25
  4.2336e+04   2.66e-25
  4.3820e+04   2.56e-25
  4.5355e+04   2.46e-25
  4.6945e+04   2.37e-25
  4.8590e+04   2.27e-25
  5.0293e+04   2.18e-25
  5.2055e+04   2.10e-25
  5.3879e+04   2.01e-25
  5.5767e+04   1.93e-25
  5.7722e+04   1.86e-25
  5.9745e+04   1.78e-25
  6.1838e+04   1.71e-25
  6.4005e+04   1.64e-25
  6.6248e+04   1.57e-25
  6.8570e+04   1.51e-25
  7.0973e+04   1.45e-25
  7.3460e+04   1.39e-25
  7.6034e+04   1.33e-25
  7.8699e+04   1.28e-25
  8.1457e+04   1.22e-25
  8.4311e+04   1.17e-25
  8.7266e+04   1.12e-25
  9.0324e+04   1.07e-25
  9.3490e+04   1.03e-25
  9.6766e+04   9.82e-26
  1.0016e+05   9.39e-26
  1.0367e+05   8.98e-26
  1.0730e+05   8.58e-26
  1.1106e+05   8.20e-26
  1.1495e+05   7.83e-26
  1.1898e+05   7.47e-26
  1.2315e+05   7.13e-26
  1.2747e+05   6.80e-26
  1.3193e+05   6.49e-26
  1.3656e+05   6.18e-26
  1.4134e+05   5.89e-26
  1.4629e+05   5.61e-26
  1.5142e+05   5.34e-26
  1.5673e+05   5.08e-26
  1.6222e+05   4.84e-26
  1.6790e+05   4.60e-26
  1.7379e+05   4.37e-26
  1.7988e+05   4.15e-26
  1.8618e+05   3.93e-26
  1.9271e+05   3.73e-26
  1.9946e+05   3.53e-26
  2.0645e+05   3.35e-26
  2.1369e+05   3.17e-26
  2.2117e+05   3.00e-26
  2.2892e+05   2.83e-26
  2.3695e+05   2.67e-26
  2.4525e+05   2.52e-26
  2.5385e+05   2.38e-26
  2.6274e+05   2.24e-26
  2.7195e+05   2.11e-26
  2.8148e+05   1.99e-26
  2.9134e+05   1.87e-26
  3.0155e+05   1.75e-26
  3.1212e+05   1.64e-26
  3.2306e+05   1.54e-26
  3.3438e+05   1.44e-26
  3.4610e+05   1.35e-26
  3.5823e+05   1.26e-26
  3.7078e+05   1.18e-26
  3.8377e+05   1.10e-26
  3.9722e+05   1.02e-26
  4.1114e+05   9.54e-27
  4.2555e+05   8.88e-27
  4.4046e+05   8.25e-27
  4.5590e+05   7.66e-27
  4.7188e+05   7.10e-27
  4.8841e+05   6.59e-27
  5.0553e+05   6.10e-27
  5.2324e+05   5.64e-27
  5.4158e+05   5.22e-27
  5.6056e+05   4.82e-27
  5.8020e+05   4.45e-27
  6.0054e+05   4.10e-27
  6.2158e+05   3.78e-27
  6.4337e+05   3.48e-27
  6.6591e+05   3.20e-27
  6.8925e+05   2.95e-27
  7.1340e+05   2.71e-27
  7.3840e+05   2.49e-27
  7.6428e+05   2.28e-27
  7.9106e+05   2.10e-27
  8.1878e+05   1.92e-27
  8.4748e+05   1.76e-27
  8.7718e+05   1.62e-27
  9.0792e+05   1.48e-27
  9.3973e+05   1.36e-27
  9.7267e+05   1.24e-27
  1.0068e+06   1.14e-27
  1.0420e+06   1.04e-27
  1.0785e+06   9.56e-28
  1.1163e+06   8.76e-28
  1.1555e+06   8.02e-28
  1.1960e+06   7.34e-28
  1.2379e+06   6.73e-28
  1.2813e+06   6.16e-28
  1.3262e+06   5.64e-28
  1.3726e+06   5.16e-28
  1.4207e+06   4.73e-28
  1.4705e+06   4.32e-28
  1.5220e+06   3.96e-28
  1.5754e+06   3.63e-28
  1.6306e+06   3.32e-28
  1.6877e+06   3.04e-28
  1.7469e+06   2.78e-28
  1.8081e+06   2.54e-28
  1.8715e+06   2.32e-28
  1.9370e+06   2.13e-28
  2.0049e+06   1.94e-28
  2.0752e+06   1.77e-28
  2.1479e+06   1.62e-28
  2.2232e+06   1.48e-28
  2.3011e+06   1.35e-28
  2.3817e+06   1.23e-28
  2.4652e+06   1.12e-28
  2.5516e+06   1.02e-28
  2.6410e+06   9.30e-29
  2.7336e+06   8.46e-29
  2.8294e+06   7.68e-29
  2.9285e+06   6.96e-29
  3.0311e+06   6.31e-29
  3.1374e+06   5.72e-29
  3.2473e+06   5.16e-29
  3.3611e+06   4.66e-29
  3.4789e+06   4.21e-29
  3.6008e+06   3.79e-29
  3.7270e+06   3.40e-29
  3.8576e+06   3.06e-29
  3.9928e+06   2.74e-29
  4.1327e+06   2.44e-29
  4.2775e+06   2.19e-29
  4.4274e+06   1.95e-29
  4.5826e+06   1.73e-29
  4.7432e+06   1.54e-29
  4.9094e+06   1.36e-29
  5.0815e+06   1.20e-29
  5.2595e+06   1.06e-29
  5.4438e+06   9.30e-30
  5.6346e+06   8.15e-30
  5.8321e+06   7.09e-30
  6.0365e+06   6.19e-30
  6.2480e+06   5.38e-30
  6.4670e+06   4.64e-30
  6.6936e+06   4.00e-30
  6.9282e+06   3.45e-30
  7.1709e+06   2.95e-30
  7.4222e+06   2.50e-30
  7.6823e+06   2.13e-30
  7.9516e+06   1.80e-30
  8.2302e+06   1.51e-30
  8.5186e+06   1.27e-30
  8.8172e+06   1.06e-30
  9.1262e+06   8.74e-31
  9.4460e+06   7.18e-31
  9.7770e+06   5.89e-31
  1.0120e+07   4.78e-31
  1.0474e+07   3.83e-31
  1.0841e+07   3.08e-31
  1.1221e+07   2.45e-31
  1.1614e+07   1.92e-31
  1.2022e+07   1.49e-31
  1.2443e+07   1.15e-31
  1.2879e+07   8.72e-32
  1.3330e+07   6.52e-32
  1.3797e+07   4.82e-32
  1.4281e+07   3.48e-32
  1.4781e+07   2.46e-32
  1.5299e+07   1.71e-32
  1.5835e+07   1.15e-32
  1.6390e+07   7.53e-33
  1.6965e+07   4.82e-33
  1.7559e+07   2.97e-33
  1.8175e+07   1.74e-33
  1.8812e+07   9.80e-34
  1.9471e+07   5.29e-34
  2.0153e+07   2.65e-34
  2.0859e+07   1.23e-34
  2.1590e+07   5.59e-35
  2.2347e+07   2.26e-35
  2.3130e+07   8.01e-36
  2.3941e+07   2.87e-36
  2.4780e+07   8.74e-37
  2.5648e+07   2.12e-37
  2.6547e+07   4.09e-38
  2.7477e+07   6.15e-39
  2.8440e+07   6.79e-40
