#  E [MeV]   Flux [# cm^{-2} s^{-1}  MeV^{-1}]
  3.0000e+04   2.91e-26
  3.1051e+04   2.80e-26
  3.2139e+04   2.70e-26
  3.3266e+04   2.60e-26
  3.4432e+04   2.50e-26
  3.5638e+04   2.41e-26
  3.6887e+04   2.32e-26
  3.8180e+04   2.23e-26
  3.9518e+04   2.15e-26
  4.0903e+04   2.06e-26
  4.2336e+04   1.99e-26
  4.3820e+04   1.91e-26
  4.5355e+04   1.84e-26
  4.6945e+04   1.77e-26
  4.8590e+04   1.70e-26
  5.0293e+04   1.63e-26
  5.2055e+04   1.57e-26
  5.3879e+04   1.51e-26
  5.5767e+04   1.45e-26
  5.7722e+04   1.39e-26
  5.9745e+04   1.33e-26
  6.1838e+04   1.28e-26
  6.4005e+04   1.23e-26
  6.6248e+04   1.18e-26
  6.8570e+04   1.13e-26
  7.0973e+04   1.09e-26
  7.3460e+04   1.04e-26
  7.6034e+04   1.00e-26
  7.8699e+04   9.61e-27
  8.1457e+04   9.22e-27
  8.4311e+04   8.84e-27
  8.7266e+04   8.48e-27
  9.0324e+04   8.13e-27
  9.3490e+04   7.80e-27
  9.6766e+04   7.48e-27
  1.0016e+05   7.17e-27
  1.0367e+05   6.88e-27
  1.0730e+05   6.59e-27
  1.1106e+05   6.32e-27
  1.1495e+05   6.06e-27
  1.1898e+05   5.81e-27
  1.2315e+05   5.57e-27
  1.2747e+05   5.34e-27
  1.3193e+05   5.12e-27
  1.3656e+05   4.91e-27
  1.4134e+05   4.70e-27
  1.4629e+05   4.51e-27
  1.5142e+05   4.32e-27
  1.5673e+05   4.15e-27
  1.6222e+05   3.97e-27
  1.6790e+05   3.81e-27
  1.7379e+05   3.65e-27
  1.7988e+05   3.51e-27
  1.8618e+05   3.36e-27
  1.9271e+05   3.22e-27
  1.9946e+05   3.09e-27
  2.0645e+05   2.97e-27
  2.1369e+05   2.85e-27
  2.2117e+05   2.73e-27
  2.2892e+05   2.62e-27
  2.3695e+05   2.52e-27
  2.4525e+05   2.41e-27
  2.5385e+05   2.32e-27
  2.6274e+05   2.23e-27
  2.7195e+05   2.14e-27
  2.8148e+05   2.05e-27
  2.9134e+05   1.97e-27
  3.0155e+05   1.89e-27
  3.1212e+05   1.82e-27
  3.2306e+05   1.75e-27
  3.3438e+05   1.68e-27
  3.4610e+05   1.61e-27
  3.5823e+05   1.55e-27
  3.7078e+05   1.49e-27
  3.8377e+05   1.43e-27
  3.9722e+05   1.38e-27
  4.1114e+05   1.33e-27
  4.2555e+05   1.28e-27
  4.4046e+05   1.23e-27
  4.5590e+05   1.18e-27
  4.7188e+05   1.14e-27
  4.8841e+05   1.09e-27
  5.0553e+05   1.05e-27
  5.2324e+05   1.01e-27
  5.4158e+05   9.75e-28
  5.6056e+05   9.39e-28
  5.8020e+05   9.05e-28
  6.0054e+05   8.71e-28
  6.2158e+05   8.39e-28
  6.4337e+05   8.09e-28
  6.6591e+05   7.79e-28
  6.8925e+05   7.51e-28
  7.1340e+05   7.24e-28
  7.3840e+05   6.98e-28
  7.6428e+05   6.73e-28
  7.9106e+05   6.49e-28
  8.1878e+05   6.26e-28
  8.4748e+05   6.04e-28
  8.7718e+05   5.83e-28
  9.0792e+05   5.63e-28
  9.3973e+05   5.43e-28
  9.7267e+05   5.25e-28
  1.0068e+06   5.07e-28
  1.0420e+06   4.90e-28
  1.0785e+06   4.73e-28
  1.1163e+06   4.57e-28
  1.1555e+06   4.42e-28
  1.1960e+06   4.28e-28
  1.2379e+06   4.14e-28
  1.2813e+06   4.00e-28
  1.3262e+06   3.87e-28
  1.3726e+06   3.75e-28
  1.4207e+06   3.63e-28
  1.4705e+06   3.51e-28
  1.5220e+06   3.40e-28
  1.5754e+06   3.29e-28
  1.6306e+06   3.19e-28
  1.6877e+06   3.09e-28
  1.7469e+06   2.99e-28
  1.8081e+06   2.89e-28
  1.8715e+06   2.80e-28
  1.9370e+06   2.71e-28
  2.0049e+06   2.62e-28
  2.0752e+06   2.54e-28
  2.1479e+06   2.46e-28
  2.2232e+06   2.37e-28
  2.3011e+06   2.29e-28
  2.3817e+06   2.22e-28
  2.4652e+06   2.14e-28
  2.5516e+06   2.07e-28
  2.6410e+06   2.00e-28
  2.7336e+06   1.93e-28
  2.8294e+06   1.86e-28
  2.9285e+06   1.79e-28
  3.0311e+06   1.72e-28
  3.1374e+06   1.66e-28
  3.2473e+06   1.59e-28
  3.3611e+06   1.53e-28
  3.4789e+06   1.47e-28
  3.6008e+06   1.41e-28
  3.7270e+06   1.35e-28
  3.8576e+06   1.29e-28
  3.9928e+06   1.23e-28
  4.1327e+06   1.18e-28
  4.2775e+06   1.12e-28
  4.4274e+06   1.07e-28
  4.5826e+06   1.02e-28
  4.7432e+06   9.64e-29
  4.9094e+06   9.14e-29
  5.0815e+06   8.64e-29
  5.2595e+06   8.16e-29
  5.4438e+06   7.69e-29
  5.6346e+06   7.22e-29
  5.8321e+06   6.77e-29
  6.0365e+06   6.35e-29
  6.2480e+06   5.92e-29
  6.4670e+06   5.51e-29
  6.6936e+06   5.12e-29
  6.9282e+06   4.74e-29
  7.1709e+06   4.37e-29
  7.4222e+06   4.03e-29
  7.6823e+06   3.70e-29
  7.9516e+06   3.38e-29
  8.2302e+06   3.07e-29
  8.5186e+06   2.79e-29
  8.8172e+06   2.52e-29
  9.1262e+06   2.26e-29
  9.4460e+06   2.03e-29
  9.7770e+06   1.80e-29
  1.0120e+07   1.60e-29
  1.0474e+07   1.41e-29
  1.0841e+07   1.23e-29
  1.1221e+07   1.07e-29
  1.1614e+07   9.16e-30
  1.2022e+07   7.81e-30
  1.2443e+07   6.60e-30
  1.2879e+07   5.53e-30
  1.3330e+07   4.58e-30
  1.3797e+07   3.75e-30
  1.4281e+07   3.04e-30
  1.4781e+07   2.43e-30
  1.5299e+07   1.91e-30
  1.5835e+07   1.48e-30
  1.6390e+07   1.13e-30
  1.6965e+07   8.44e-31
  1.7559e+07   6.18e-31
  1.8175e+07   4.42e-31
  1.8812e+07   3.07e-31
  1.9471e+07   2.07e-31
  2.0153e+07   1.36e-31
  2.0859e+07   8.59e-32
  2.1590e+07   5.16e-32
  2.2347e+07   3.03e-32
  2.3130e+07   1.68e-32
  2.3941e+07   8.72e-33
  2.4780e+07   4.30e-33
  2.5648e+07   1.98e-33
  2.6547e+07   8.31e-34
  2.7477e+07   3.15e-34
  2.8440e+07   1.10e-34
