#  E [MeV]   Flux [# cm^{-2} s^{-1}  MeV^{-1}]
  3.0000e+04   2.11e-24
  3.0962e+04   2.04e-24
  3.1955e+04   1.97e-24
  3.2979e+04   1.91e-24
  3.4037e+04   1.84e-24
  3.5128e+04   1.78e-24
  3.6254e+04   1.72e-24
  3.7417e+04   1.66e-24
  3.8616e+04   1.61e-24
  3.9855e+04   1.55e-24
  4.1132e+04   1.50e-24
  4.2451e+04   1.45e-24
  4.3812e+04   1.39e-24
  4.5217e+04   1.35e-24
  4.6667e+04   1.30e-24
  4.8163e+04   1.25e-24
  4.9707e+04   1.21e-24
  5.1301e+04   1.16e-24
  5.2946e+04   1.12e-24
  5.4644e+04   1.08e-24
  5.6396e+04   1.04e-24
  5.8204e+04   1.00e-24
  6.0070e+04   9.65e-25
  6.1996e+04   9.29e-25
  6.3984e+04   8.94e-25
  6.6035e+04   8.60e-25
  6.8153e+04   8.27e-25
  7.0338e+04   7.95e-25
  7.2593e+04   7.64e-25
  7.4921e+04   7.34e-25
  7.7323e+04   7.05e-25
  7.9802e+04   6.77e-25
  8.2361e+04   6.50e-25
  8.5002e+04   6.24e-25
  8.7727e+04   5.98e-25
  9.0540e+04   5.74e-25
  9.3443e+04   5.50e-25
  9.6439e+04   5.27e-25
  9.9531e+04   5.05e-25
  1.0272e+05   4.84e-25
  1.0602e+05   4.63e-25
  1.0942e+05   4.43e-25
  1.1292e+05   4.23e-25
  1.1654e+05   4.05e-25
  1.2028e+05   3.87e-25
  1.2414e+05   3.70e-25
  1.2812e+05   3.53e-25
  1.3223e+05   3.37e-25
  1.3646e+05   3.21e-25
  1.4084e+05   3.06e-25
  1.4536e+05   2.92e-25
  1.5002e+05   2.78e-25
  1.5483e+05   2.65e-25
  1.5979e+05   2.52e-25
  1.6491e+05   2.40e-25
  1.7020e+05   2.28e-25
  1.7566e+05   2.17e-25
  1.8129e+05   2.06e-25
  1.8710e+05   1.96e-25
  1.9310e+05   1.86e-25
  1.9929e+05   1.76e-25
  2.0568e+05   1.67e-25
  2.1228e+05   1.58e-25
  2.1909e+05   1.50e-25
  2.2611e+05   1.42e-25
  2.3336e+05   1.34e-25
  2.4084e+05   1.27e-25
  2.4856e+05   1.20e-25
  2.5653e+05   1.13e-25
  2.6476e+05   1.07e-25
  2.7325e+05   1.01e-25
  2.8201e+05   9.52e-26
  2.9105e+05   8.97e-26
  3.0038e+05   8.45e-26
  3.1002e+05   7.96e-26
  3.1996e+05   7.49e-26
  3.3021e+05   7.04e-26
  3.4080e+05   6.61e-26
  3.5173e+05   6.21e-26
  3.6301e+05   5.83e-26
  3.7465e+05   5.47e-26
  3.8666e+05   5.12e-26
  3.9905e+05   4.79e-26
  4.1185e+05   4.48e-26
  4.2506e+05   4.19e-26
  4.3868e+05   3.91e-26
  4.5275e+05   3.65e-26
  4.6727e+05   3.41e-26
  4.8225e+05   3.17e-26
  4.9771e+05   2.96e-26
  5.1367e+05   2.75e-26
  5.3014e+05   2.56e-26
  5.4714e+05   2.38e-26
  5.6468e+05   2.21e-26
  5.8278e+05   2.05e-26
  6.0147e+05   1.90e-26
  6.2075e+05   1.76e-26
  6.4066e+05   1.63e-26
  6.6120e+05   1.51e-26
  6.8240e+05   1.39e-26
  7.0428e+05   1.29e-26
  7.2686e+05   1.19e-26
  7.5017e+05   1.10e-26
  7.7422e+05   1.01e-26
  7.9904e+05   9.35e-27
  8.2466e+05   8.61e-27
  8.5110e+05   7.91e-27
  8.7839e+05   7.28e-27
  9.0656e+05   6.69e-27
  9.3562e+05   6.15e-27
  9.6562e+05   5.63e-27
  9.9658e+05   5.18e-27
  1.0285e+06   4.75e-27
  1.0615e+06   4.35e-27
  1.0956e+06   3.98e-27
  1.1307e+06   3.65e-27
  1.1669e+06   3.34e-27
  1.2043e+06   3.05e-27
  1.2430e+06   2.79e-27
  1.2828e+06   2.55e-27
  1.3239e+06   2.32e-27
  1.3664e+06   2.11e-27
  1.4102e+06   1.93e-27
  1.4554e+06   1.76e-27
  1.5021e+06   1.60e-27
  1.5502e+06   1.46e-27
  1.6000e+06   1.33e-27
  1.6513e+06   1.21e-27
  1.7042e+06   1.09e-27
  1.7588e+06   9.93e-28
  1.8152e+06   9.02e-28
  1.8734e+06   8.17e-28
  1.9335e+06   7.37e-28
  1.9955e+06   6.70e-28
  2.0595e+06   6.07e-28
  2.1255e+06   5.47e-28
  2.1937e+06   4.94e-28
  2.2640e+06   4.47e-28
  2.3366e+06   4.03e-28
  2.4115e+06   3.62e-28
  2.4888e+06   3.27e-28
  2.5686e+06   2.95e-28
  2.6510e+06   2.64e-28
  2.7360e+06   2.36e-28
  2.8237e+06   2.13e-28
  2.9142e+06   1.91e-28
  3.0077e+06   1.71e-28
  3.1041e+06   1.53e-28
  3.2036e+06   1.37e-28
  3.3064e+06   1.22e-28
  3.4124e+06   1.09e-28
  3.5218e+06   9.72e-29
  3.6347e+06   8.67e-29
  3.7512e+06   7.69e-29
  3.8715e+06   6.80e-29
  3.9957e+06   6.07e-29
  4.1238e+06   5.39e-29
  4.2560e+06   4.75e-29
  4.3924e+06   4.20e-29
  4.5333e+06   3.73e-29
  4.6786e+06   3.29e-29
  4.8286e+06   2.88e-29
  4.9835e+06   2.55e-29
  5.1433e+06   2.25e-29
  5.3082e+06   1.97e-29
  5.4784e+06   1.72e-29
  5.6540e+06   1.52e-29
  5.8353e+06   1.33e-29
  6.0224e+06   1.16e-29
  6.2155e+06   1.01e-29
  6.4148e+06   8.88e-30
  6.6205e+06   7.73e-30
  6.8327e+06   6.66e-30
  7.0518e+06   5.82e-30
  7.2779e+06   5.05e-30
  7.5113e+06   4.34e-30
  7.7521e+06   3.72e-30
  8.0007e+06   3.23e-30
  8.2572e+06   2.79e-30
  8.5219e+06   2.38e-30
  8.7952e+06   2.05e-30
  9.0772e+06   1.77e-30
  9.3682e+06   1.52e-30
  9.6686e+06   1.29e-30
  9.9786e+06   1.12e-30
  1.0299e+07   9.70e-31
  1.0629e+07   8.32e-31
  1.0970e+07   7.15e-31
  1.1321e+07   6.22e-31
  1.1684e+07   5.37e-31
  1.2059e+07   4.60e-31
  1.2446e+07   3.99e-31
  1.2845e+07   3.46e-31
  1.3256e+07   2.98e-31
  1.3681e+07   2.55e-31
  1.4120e+07   2.20e-31
  1.4573e+07   1.87e-31
  1.5040e+07   1.58e-31
  1.5522e+07   1.33e-31
  1.6020e+07   1.10e-31
