#  E [GeV]   # per interaction  [GeV^{-1}]
  3.0000e+01   3.78e-01
  3.0872e+01   3.66e-01
  3.1770e+01   3.54e-01
  3.2694e+01   3.42e-01
  3.3644e+01   3.31e-01
  3.4623e+01   3.20e-01
  3.5629e+01   3.09e-01
  3.6665e+01   2.99e-01
  3.7731e+01   2.89e-01
  3.8829e+01   2.79e-01
  3.9958e+01   2.70e-01
  4.1119e+01   2.60e-01
  4.2315e+01   2.52e-01
  4.3545e+01   2.43e-01
  4.4812e+01   2.34e-01
  4.6115e+01   2.26e-01
  4.7456e+01   2.18e-01
  4.8835e+01   2.10e-01
  5.0255e+01   2.03e-01
  5.1717e+01   1.96e-01
  5.3220e+01   1.89e-01
  5.4768e+01   1.82e-01
  5.6360e+01   1.75e-01
  5.7999e+01   1.69e-01
  5.9686e+01   1.62e-01
  6.1421e+01   1.56e-01
  6.3207e+01   1.50e-01
  6.5045e+01   1.45e-01
  6.6936e+01   1.39e-01
  6.8882e+01   1.34e-01
  7.0885e+01   1.29e-01
  7.2947e+01   1.24e-01
  7.5068e+01   1.19e-01
  7.7250e+01   1.14e-01
  7.9496e+01   1.10e-01
  8.1808e+01   1.05e-01
  8.4187e+01   1.01e-01
  8.6635e+01   9.68e-02
  8.9154e+01   9.29e-02
  9.1746e+01   8.91e-02
  9.4414e+01   8.54e-02
  9.7159e+01   8.19e-02
  9.9984e+01   7.84e-02
  1.0289e+02   7.51e-02
  1.0588e+02   7.20e-02
  1.0896e+02   6.89e-02
  1.1213e+02   6.59e-02
  1.1539e+02   6.31e-02
  1.1875e+02   6.03e-02
  1.2220e+02   5.77e-02
  1.2575e+02   5.51e-02
  1.2941e+02   5.27e-02
  1.3317e+02   5.03e-02
  1.3704e+02   4.81e-02
  1.4103e+02   4.59e-02
  1.4513e+02   4.38e-02
  1.4935e+02   4.18e-02
  1.5369e+02   3.99e-02
  1.5816e+02   3.80e-02
  1.6276e+02   3.63e-02
  1.6749e+02   3.46e-02
  1.7236e+02   3.29e-02
  1.7737e+02   3.14e-02
  1.8253e+02   2.99e-02
  1.8784e+02   2.84e-02
  1.9330e+02   2.71e-02
  1.9892e+02   2.58e-02
  2.0470e+02   2.45e-02
  2.1066e+02   2.33e-02
  2.1678e+02   2.21e-02
  2.2309e+02   2.10e-02
  2.2957e+02   2.00e-02
  2.3625e+02   1.89e-02
  2.4312e+02   1.80e-02
  2.5019e+02   1.70e-02
  2.5746e+02   1.61e-02
  2.6495e+02   1.53e-02
  2.7265e+02   1.45e-02
  2.8058e+02   1.37e-02
  2.8874e+02   1.30e-02
  2.9713e+02   1.23e-02
  3.0577e+02   1.16e-02
  3.1466e+02   1.10e-02
  3.2381e+02   1.04e-02
  3.3323e+02   9.79e-03
  3.4292e+02   9.23e-03
  3.5289e+02   8.71e-03
  3.6315e+02   8.22e-03
  3.7371e+02   7.74e-03
  3.8457e+02   7.29e-03
  3.9576e+02   6.87e-03
  4.0726e+02   6.47e-03
  4.1911e+02   6.08e-03
  4.3129e+02   5.72e-03
  4.4383e+02   5.37e-03
  4.5674e+02   5.05e-03
  4.7002e+02   4.74e-03
  4.8368e+02   4.44e-03
  4.9775e+02   4.17e-03
  5.1222e+02   3.91e-03
  5.2712e+02   3.66e-03
  5.4244e+02   3.42e-03
  5.5821e+02   3.20e-03
  5.7445e+02   3.00e-03
  5.9115e+02   2.80e-03
  6.0834e+02   2.62e-03
  6.2603e+02   2.44e-03
  6.4423e+02   2.28e-03
  6.6296e+02   2.13e-03
  6.8224e+02   1.98e-03
  7.0208e+02   1.85e-03
  7.2249e+02   1.72e-03
  7.4350e+02   1.60e-03
  7.6512e+02   1.49e-03
  7.8736e+02   1.39e-03
  8.1026e+02   1.29e-03
  8.3382e+02   1.20e-03
  8.5806e+02   1.11e-03
  8.8301e+02   1.03e-03
  9.0869e+02   9.55e-04
  9.3511e+02   8.85e-04
  9.6230e+02   8.19e-04
  9.9028e+02   7.57e-04
  1.0191e+03   7.01e-04
  1.0487e+03   6.49e-04
  1.0792e+03   5.99e-04
  1.1106e+03   5.52e-04
  1.1429e+03   5.10e-04
  1.1761e+03   4.71e-04
  1.2103e+03   4.34e-04
  1.2455e+03   3.99e-04
  1.2817e+03   3.68e-04
  1.3190e+03   3.39e-04
  1.3573e+03   3.11e-04
  1.3968e+03   2.85e-04
  1.4374e+03   2.63e-04
  1.4792e+03   2.41e-04
  1.5222e+03   2.21e-04
  1.5665e+03   2.02e-04
  1.6120e+03   1.85e-04
  1.6589e+03   1.70e-04
  1.7071e+03   1.55e-04
  1.7568e+03   1.41e-04
  1.8079e+03   1.29e-04
  1.8604e+03   1.18e-04
  1.9145e+03   1.07e-04
  1.9702e+03   9.70e-05
  2.0275e+03   8.85e-05
  2.0864e+03   8.05e-05
  2.1471e+03   7.28e-05
  2.2095e+03   6.57e-05
  2.2738e+03   5.97e-05
  2.3399e+03   5.41e-05
  2.4079e+03   4.87e-05
  2.4779e+03   4.37e-05
  2.5500e+03   3.96e-05
  2.6241e+03   3.57e-05
  2.7004e+03   3.20e-05
  2.7790e+03   2.86e-05
  2.8598e+03   2.58e-05
  2.9429e+03   2.31e-05
  3.0285e+03   2.06e-05
  3.1165e+03   1.83e-05
  3.2072e+03   1.65e-05
  3.3004e+03   1.47e-05
  3.3964e+03   1.30e-05
  3.4951e+03   1.15e-05
  3.5968e+03   1.03e-05
  3.7013e+03   9.10e-06
  3.8090e+03   8.00e-06
  3.9197e+03   6.98e-06
  4.0337e+03   6.21e-06
  4.1510e+03   5.48e-06
  4.2717e+03   4.78e-06
  4.3959e+03   4.14e-06
  4.5237e+03   3.66e-06
  4.6552e+03   3.21e-06
  4.7906e+03   2.78e-06
  4.9299e+03   2.39e-06
  5.0732e+03   2.10e-06
  5.2208e+03   1.83e-06
  5.3726e+03   1.58e-06
  5.5288e+03   1.34e-06
  5.6895e+03   1.17e-06
  5.8550e+03   1.01e-06
  6.0252e+03   8.66e-07
  6.2004e+03   7.28e-07
  6.3807e+03   6.34e-07
  6.5662e+03   5.45e-07
  6.7572e+03   4.62e-07
  6.9536e+03   3.85e-07
  7.1558e+03   3.31e-07
  7.3639e+03   2.81e-07
  7.5780e+03   2.34e-07
  7.7984e+03   1.90e-07
  8.0251e+03   1.59e-07
  8.2585e+03   1.31e-07
  8.4986e+03   1.05e-07
  8.7457e+03   8.06e-08
  9.0000e+03   6.57e-08
