#  E [MeV]   Flux [# cm^{-2} s^{-1}  MeV^{-1}]
  3.0000e+04   4.32e-21
  3.1033e+04   4.15e-21
  3.2102e+04   4.00e-21
  3.3207e+04   3.85e-21
  3.4350e+04   3.70e-21
  3.5533e+04   3.56e-21
  3.6757e+04   3.42e-21
  3.8022e+04   3.29e-21
  3.9332e+04   3.16e-21
  4.0686e+04   3.04e-21
  4.2087e+04   2.92e-21
  4.3536e+04   2.81e-21
  4.5035e+04   2.69e-21
  4.6586e+04   2.59e-21
  4.8190e+04   2.48e-21
  4.9850e+04   2.38e-21
  5.1566e+04   2.29e-21
  5.3342e+04   2.19e-21
  5.5178e+04   2.10e-21
  5.7078e+04   2.02e-21
  5.9044e+04   1.93e-21
  6.1077e+04   1.85e-21
  6.3180e+04   1.78e-21
  6.5356e+04   1.70e-21
  6.7606e+04   1.63e-21
  6.9934e+04   1.56e-21
  7.2342e+04   1.49e-21
  7.4833e+04   1.43e-21
  7.7410e+04   1.37e-21
  8.0075e+04   1.31e-21
  8.2833e+04   1.25e-21
  8.5685e+04   1.20e-21
  8.8635e+04   1.15e-21
  9.1687e+04   1.09e-21
  9.4844e+04   1.05e-21
  9.8110e+04   1.00e-21
  1.0149e+05   9.55e-22
  1.0498e+05   9.12e-22
  1.0860e+05   8.71e-22
  1.1234e+05   8.31e-22
  1.1621e+05   7.93e-22
  1.2021e+05   7.57e-22
  1.2435e+05   7.22e-22
  1.2863e+05   6.88e-22
  1.3306e+05   6.56e-22
  1.3764e+05   6.26e-22
  1.4238e+05   5.96e-22
  1.4728e+05   5.68e-22
  1.5235e+05   5.41e-22
  1.5760e+05   5.15e-22
  1.6302e+05   4.91e-22
  1.6864e+05   4.67e-22
  1.7445e+05   4.44e-22
  1.8045e+05   4.23e-22
  1.8667e+05   4.02e-22
  1.9309e+05   3.82e-22
  1.9974e+05   3.63e-22
  2.0662e+05   3.45e-22
  2.1373e+05   3.28e-22
  2.2109e+05   3.11e-22
  2.2871e+05   2.96e-22
  2.3658e+05   2.81e-22
  2.4473e+05   2.66e-22
  2.5316e+05   2.53e-22
  2.6187e+05   2.40e-22
  2.7089e+05   2.27e-22
  2.8022e+05   2.16e-22
  2.8987e+05   2.04e-22
  2.9985e+05   1.94e-22
  3.1017e+05   1.84e-22
  3.2085e+05   1.74e-22
  3.3190e+05   1.65e-22
  3.4333e+05   1.56e-22
  3.5515e+05   1.48e-22
  3.6738e+05   1.40e-22
  3.8003e+05   1.32e-22
  3.9312e+05   1.25e-22
  4.0665e+05   1.18e-22
  4.2066e+05   1.12e-22
  4.3514e+05   1.06e-22
  4.5013e+05   9.97e-23
  4.6562e+05   9.42e-23
  4.8166e+05   8.90e-23
  4.9824e+05   8.41e-23
  5.1540e+05   7.94e-23
  5.3315e+05   7.49e-23
  5.5150e+05   7.07e-23
  5.7050e+05   6.68e-23
  5.9014e+05   6.30e-23
  6.1046e+05   5.95e-23
  6.3148e+05   5.61e-23
  6.5322e+05   5.30e-23
  6.7572e+05   5.00e-23
  6.9898e+05   4.71e-23
  7.2305e+05   4.45e-23
  7.4795e+05   4.20e-23
  7.7371e+05   3.96e-23
  8.0035e+05   3.74e-23
  8.2791e+05   3.53e-23
  8.5641e+05   3.33e-23
  8.8590e+05   3.14e-23
  9.1641e+05   2.97e-23
  9.4796e+05   2.81e-23
  9.8061e+05   2.65e-23
  1.0144e+06   2.50e-23
  1.0493e+06   2.37e-23
  1.0854e+06   2.24e-23
  1.1228e+06   2.12e-23
  1.1615e+06   2.00e-23
  1.2015e+06   1.89e-23
  1.2428e+06   1.79e-23
  1.2856e+06   1.70e-23
  1.3299e+06   1.61e-23
  1.3757e+06   1.52e-23
  1.4231e+06   1.44e-23
  1.4721e+06   1.37e-23
  1.5228e+06   1.30e-23
  1.5752e+06   1.23e-23
  1.6294e+06   1.17e-23
  1.6855e+06   1.11e-23
  1.7436e+06   1.05e-23
  1.8036e+06   1.00e-23
  1.8657e+06   9.51e-24
  1.9300e+06   9.04e-24
  1.9964e+06   8.60e-24
  2.0652e+06   8.18e-24
  2.1363e+06   7.78e-24
  2.2098e+06   7.41e-24
  2.2859e+06   7.05e-24
  2.3646e+06   6.71e-24
  2.4461e+06   6.39e-24
  2.5303e+06   6.09e-24
  2.6174e+06   5.80e-24
  2.7075e+06   5.53e-24
  2.8008e+06   5.27e-24
  2.8972e+06   5.02e-24
  2.9970e+06   4.78e-24
  3.1002e+06   4.56e-24
  3.2069e+06   4.35e-24
  3.3173e+06   4.14e-24
  3.4316e+06   3.95e-24
  3.5497e+06   3.77e-24
  3.6720e+06   3.59e-24
  3.7984e+06   3.42e-24
  3.9292e+06   3.26e-24
  4.0645e+06   3.11e-24
  4.2044e+06   2.96e-24
  4.3492e+06   2.82e-24
  4.4990e+06   2.69e-24
  4.6539e+06   2.56e-24
  4.8141e+06   2.43e-24
  4.9799e+06   2.31e-24
  5.1514e+06   2.20e-24
  5.3288e+06   2.09e-24
  5.5123e+06   1.98e-24
  5.7021e+06   1.88e-24
  5.8984e+06   1.78e-24
  6.1015e+06   1.68e-24
  6.3116e+06   1.59e-24
  6.5289e+06   1.51e-24
  6.7538e+06   1.42e-24
  6.9863e+06   1.34e-24
  7.2269e+06   1.27e-24
  7.4757e+06   1.19e-24
  7.7331e+06   1.12e-24
  7.9994e+06   1.05e-24
  8.2749e+06   9.87e-25
  8.5598e+06   9.24e-25
  8.8546e+06   8.64e-25
  9.1594e+06   8.06e-25
  9.4748e+06   7.51e-25
  9.8011e+06   6.97e-25
  1.0139e+07   6.46e-25
  1.0488e+07   5.97e-25
  1.0849e+07   5.50e-25
  1.1222e+07   5.05e-25
  1.1609e+07   4.62e-25
  1.2009e+07   4.22e-25
  1.2422e+07   3.83e-25
  1.2850e+07   3.47e-25
  1.3292e+07   3.12e-25
  1.3750e+07   2.80e-25
  1.4223e+07   2.49e-25
  1.4713e+07   2.21e-25
  1.5220e+07   1.94e-25
  1.5744e+07   1.70e-25
  1.6286e+07   1.47e-25
  1.6847e+07   1.26e-25
  1.7427e+07   1.07e-25
  1.8027e+07   8.96e-26
  1.8648e+07   7.42e-26
  1.9290e+07   6.05e-26
  1.9954e+07   4.85e-26
  2.0641e+07   3.82e-26
  2.1352e+07   2.94e-26
  2.2087e+07   2.21e-26
  2.2848e+07   1.61e-26
  2.3634e+07   1.14e-26
  2.4448e+07   7.73e-27
  2.5290e+07   5.07e-27
