#  E [GeV]   # per interaction  [GeV^{-1}]
  3.0000e+01   6.20e-01
  3.1232e+01   5.93e-01
  3.2514e+01   5.67e-01
  3.3849e+01   5.42e-01
  3.5238e+01   5.18e-01
  3.6685e+01   4.96e-01
  3.8191e+01   4.74e-01
  3.9759e+01   4.53e-01
  4.1391e+01   4.33e-01
  4.3090e+01   4.14e-01
  4.4859e+01   3.95e-01
  4.6701e+01   3.78e-01
  4.8618e+01   3.61e-01
  5.0614e+01   3.45e-01
  5.2692e+01   3.30e-01
  5.4855e+01   3.15e-01
  5.7107e+01   3.01e-01
  5.9451e+01   2.87e-01
  6.1892e+01   2.74e-01
  6.4433e+01   2.62e-01
  6.7078e+01   2.50e-01
  6.9832e+01   2.38e-01
  7.2699e+01   2.28e-01
  7.5683e+01   2.17e-01
  7.8790e+01   2.07e-01
  8.2025e+01   1.98e-01
  8.5392e+01   1.89e-01
  8.8898e+01   1.80e-01
  9.2547e+01   1.71e-01
  9.6347e+01   1.63e-01
  1.0030e+02   1.56e-01
  1.0442e+02   1.48e-01
  1.0871e+02   1.41e-01
  1.1317e+02   1.35e-01
  1.1782e+02   1.28e-01
  1.2265e+02   1.22e-01
  1.2769e+02   1.16e-01
  1.3293e+02   1.11e-01
  1.3839e+02   1.05e-01
  1.4407e+02   9.99e-02
  1.4998e+02   9.49e-02
  1.5614e+02   9.02e-02
  1.6255e+02   8.56e-02
  1.6922e+02   8.12e-02
  1.7617e+02   7.70e-02
  1.8340e+02   7.30e-02
  1.9093e+02   6.92e-02
  1.9877e+02   6.55e-02
  2.0693e+02   6.20e-02
  2.1543e+02   5.86e-02
  2.2427e+02   5.54e-02
  2.3348e+02   5.23e-02
  2.4306e+02   4.93e-02
  2.5304e+02   4.65e-02
  2.6343e+02   4.38e-02
  2.7424e+02   4.12e-02
  2.8550e+02   3.87e-02
  2.9722e+02   3.64e-02
  3.0942e+02   3.41e-02
  3.2213e+02   3.20e-02
  3.3535e+02   2.99e-02
  3.4912e+02   2.80e-02
  3.6345e+02   2.61e-02
  3.7837e+02   2.44e-02
  3.9390e+02   2.27e-02
  4.1008e+02   2.12e-02
  4.2691e+02   1.97e-02
  4.4444e+02   1.83e-02
  4.6268e+02   1.70e-02
  4.8168e+02   1.57e-02
  5.0145e+02   1.45e-02
  5.2204e+02   1.34e-02
  5.4347e+02   1.24e-02
  5.6578e+02   1.15e-02
  5.8901e+02   1.06e-02
  6.1319e+02   9.73e-03
  6.3836e+02   8.95e-03
  6.6457e+02   8.23e-03
  6.9185e+02   7.57e-03
  7.2025e+02   6.95e-03
  7.4982e+02   6.38e-03
  7.8061e+02   5.85e-03
  8.1265e+02   5.37e-03
  8.4601e+02   4.92e-03
  8.8075e+02   4.51e-03
  9.1690e+02   4.14e-03
  9.5455e+02   3.79e-03
  9.9373e+02   3.48e-03
  1.0345e+03   3.18e-03
  1.0770e+03   2.92e-03
  1.1212e+03   2.67e-03
  1.1672e+03   2.45e-03
  1.2152e+03   2.25e-03
  1.2650e+03   2.06e-03
  1.3170e+03   1.89e-03
  1.3711e+03   1.73e-03
  1.4273e+03   1.59e-03
  1.4859e+03   1.46e-03
  1.5469e+03   1.34e-03
  1.6104e+03   1.23e-03
  1.6766e+03   1.13e-03
  1.7454e+03   1.04e-03
  1.8170e+03   9.52e-04
  1.8916e+03   8.74e-04
  1.9693e+03   8.03e-04
  2.0501e+03   7.36e-04
  2.1343e+03   6.76e-04
  2.2219e+03   6.20e-04
  2.3131e+03   5.68e-04
  2.4081e+03   5.20e-04
  2.5070e+03   4.76e-04
  2.6099e+03   4.35e-04
  2.7170e+03   3.98e-04
  2.8286e+03   3.63e-04
  2.9447e+03   3.31e-04
  3.0656e+03   3.02e-04
  3.1914e+03   2.75e-04
  3.3225e+03   2.49e-04
  3.4589e+03   2.26e-04
  3.6008e+03   2.05e-04
  3.7487e+03   1.85e-04
  3.9026e+03   1.67e-04
  4.0628e+03   1.50e-04
  4.2296e+03   1.35e-04
  4.4032e+03   1.21e-04
  4.5840e+03   1.08e-04
  4.7722e+03   9.58e-05
  4.9681e+03   8.51e-05
  5.1720e+03   7.51e-05
  5.3844e+03   6.62e-05
  5.6054e+03   5.81e-05
  5.8355e+03   5.07e-05
  6.0751e+03   4.42e-05
  6.3245e+03   3.82e-05
  6.5841e+03   3.29e-05
  6.8544e+03   2.82e-05
  7.1358e+03   2.40e-05
  7.4288e+03   2.02e-05
  7.7338e+03   1.70e-05
  8.0513e+03   1.41e-05
  8.3818e+03   1.17e-05
  8.7259e+03   9.54e-06
  9.0841e+03   7.71e-06
  9.4571e+03   6.16e-06
  9.8453e+03   4.88e-06
  1.0249e+04   3.79e-06
  1.0670e+04   2.91e-06
  1.1108e+04   2.20e-06
  1.1564e+04   1.63e-06
  1.2039e+04   1.19e-06
  1.2533e+04   8.44e-07
  1.3048e+04   5.83e-07
  1.3584e+04   3.94e-07
  1.4141e+04   2.57e-07
  1.4722e+04   1.62e-07
  1.5326e+04   9.84e-08
  1.5955e+04   5.70e-08
  1.6610e+04   3.13e-08
  1.7292e+04   1.63e-08
  1.8002e+04   7.94e-09
  1.8741e+04   3.57e-09
  1.9511e+04   1.49e-09
  2.0312e+04   5.57e-10
  2.1145e+04   1.86e-10
  2.2013e+04   5.46e-11
  2.2917e+04   1.36e-11
  2.3858e+04   2.85e-12
  2.4837e+04   4.84e-13
  2.5857e+04   6.32e-14
  2.6919e+04   6.18e-15
  2.8024e+04   4.23e-16
  2.9174e+04   1.88e-17
  3.0372e+04   5.04e-19
  3.1619e+04   7.25e-21
  3.2917e+04   4.84e-23
  3.4268e+04   1.30e-25
  3.5675e+04   1.10e-28
  3.7140e+04   2.23e-32
  3.8664e+04   7.85e-37
  4.0252e+04   2.91e-42
  4.1904e+04   5.53e-47
  4.3624e+04   4.69e-47
  4.5415e+04   3.91e-47
  4.7280e+04   3.24e-47
  4.9221e+04   2.74e-47
  5.1241e+04   2.27e-47
  5.3345e+04   1.88e-47
  5.5535e+04   1.58e-47
  5.7815e+04   1.30e-47
  6.0188e+04   1.08e-47
  6.2659e+04   8.92e-48
  6.5232e+04   7.21e-48
  6.7910e+04   5.94e-48
  7.0698e+04   4.86e-48
  7.3600e+04   3.86e-48
  7.6621e+04   3.10e-48
  7.9767e+04   2.41e-48
  8.3042e+04   1.77e-48
  8.6451e+04   1.31e-48
  9.0000e+04   8.90e-49
