#  E [MeV]   Flux [# cm^{-2} s^{-1}  MeV^{-1}]
  3.0000e+04   4.50e-20
  3.0943e+04   4.35e-20
  3.1916e+04   4.20e-20
  3.2920e+04   4.06e-20
  3.3955e+04   3.92e-20
  3.5023e+04   3.79e-20
  3.6124e+04   3.66e-20
  3.7260e+04   3.53e-20
  3.8432e+04   3.41e-20
  3.9640e+04   3.29e-20
  4.0887e+04   3.18e-20
  4.2172e+04   3.07e-20
  4.3499e+04   2.96e-20
  4.4866e+04   2.85e-20
  4.6277e+04   2.75e-20
  4.7732e+04   2.65e-20
  4.9233e+04   2.55e-20
  5.0781e+04   2.46e-20
  5.2378e+04   2.37e-20
  5.4025e+04   2.28e-20
  5.5724e+04   2.20e-20
  5.7476e+04   2.12e-20
  5.9284e+04   2.04e-20
  6.1148e+04   1.96e-20
  6.3071e+04   1.89e-20
  6.5054e+04   1.81e-20
  6.7100e+04   1.74e-20
  6.9210e+04   1.68e-20
  7.1386e+04   1.61e-20
  7.3631e+04   1.55e-20
  7.5946e+04   1.49e-20
  7.8334e+04   1.43e-20
  8.0797e+04   1.37e-20
  8.3338e+04   1.31e-20
  8.5959e+04   1.26e-20
  8.8662e+04   1.21e-20
  9.1450e+04   1.16e-20
  9.4325e+04   1.11e-20
  9.7291e+04   1.06e-20
  1.0035e+05   1.02e-20
  1.0351e+05   9.75e-21
  1.0676e+05   9.33e-21
  1.1012e+05   8.92e-21
  1.1358e+05   8.53e-21
  1.1715e+05   8.16e-21
  1.2084e+05   7.79e-21
  1.2464e+05   7.44e-21
  1.2856e+05   7.11e-21
  1.3260e+05   6.78e-21
  1.3677e+05   6.47e-21
  1.4107e+05   6.17e-21
  1.4550e+05   5.88e-21
  1.5008e+05   5.61e-21
  1.5480e+05   5.34e-21
  1.5967e+05   5.09e-21
  1.6469e+05   4.84e-21
  1.6987e+05   4.60e-21
  1.7521e+05   4.38e-21
  1.8072e+05   4.16e-21
  1.8640e+05   3.95e-21
  1.9226e+05   3.75e-21
  1.9831e+05   3.56e-21
  2.0454e+05   3.37e-21
  2.1097e+05   3.20e-21
  2.1761e+05   3.03e-21
  2.2445e+05   2.87e-21
  2.3151e+05   2.71e-21
  2.3879e+05   2.57e-21
  2.4630e+05   2.42e-21
  2.5404e+05   2.29e-21
  2.6203e+05   2.16e-21
  2.7027e+05   2.04e-21
  2.7877e+05   1.92e-21
  2.8753e+05   1.81e-21
  2.9657e+05   1.71e-21
  3.0590e+05   1.60e-21
  3.1552e+05   1.51e-21
  3.2544e+05   1.42e-21
  3.3567e+05   1.33e-21
  3.4623e+05   1.25e-21
  3.5712e+05   1.17e-21
  3.6835e+05   1.10e-21
  3.7993e+05   1.02e-21
  3.9188e+05   9.58e-22
  4.0420e+05   8.95e-22
  4.1691e+05   8.35e-22
  4.3002e+05   7.79e-22
  4.4354e+05   7.27e-22
  4.5749e+05   6.77e-22
  4.7187e+05   6.29e-22
  4.8671e+05   5.86e-22
  5.0202e+05   5.44e-22
  5.1780e+05   5.05e-22
  5.3409e+05   4.69e-22
  5.5088e+05   4.35e-22
  5.6820e+05   4.03e-22
  5.8607e+05   3.73e-22
  6.0450e+05   3.45e-22
  6.2351e+05   3.19e-22
  6.4311e+05   2.95e-22
  6.6334e+05   2.72e-22
  6.8419e+05   2.51e-22
  7.0571e+05   2.32e-22
  7.2790e+05   2.13e-22
  7.5079e+05   1.96e-22
  7.7440e+05   1.81e-22
  7.9875e+05   1.67e-22
  8.2387e+05   1.53e-22
  8.4977e+05   1.41e-22
  8.7649e+05   1.29e-22
  9.0405e+05   1.19e-22
  9.3248e+05   1.09e-22
  9.6180e+05   1.00e-22
  9.9205e+05   9.20e-23
  1.0232e+06   8.44e-23
  1.0554e+06   7.73e-23
  1.0886e+06   7.10e-23
  1.1228e+06   6.51e-23
  1.1581e+06   5.95e-23
  1.1946e+06   5.45e-23
  1.2321e+06   5.00e-23
  1.2709e+06   4.58e-23
  1.3108e+06   4.18e-23
  1.3521e+06   3.83e-23
  1.3946e+06   3.50e-23
  1.4384e+06   3.20e-23
  1.4837e+06   2.92e-23
  1.5303e+06   2.67e-23
  1.5784e+06   2.44e-23
  1.6281e+06   2.22e-23
  1.6793e+06   2.02e-23
  1.7321e+06   1.85e-23
  1.7865e+06   1.69e-23
  1.8427e+06   1.53e-23
  1.9006e+06   1.39e-23
  1.9604e+06   1.27e-23
  2.0221e+06   1.16e-23
  2.0856e+06   1.05e-23
  2.1512e+06   9.52e-24
  2.2189e+06   8.65e-24
  2.2886e+06   7.83e-24
  2.3606e+06   7.07e-24
  2.4348e+06   6.42e-24
  2.5114e+06   5.80e-24
  2.5904e+06   5.23e-24
  2.6718e+06   4.71e-24
  2.7558e+06   4.25e-24
  2.8425e+06   3.83e-24
  2.9319e+06   3.42e-24
  3.0241e+06   3.07e-24
  3.1192e+06   2.76e-24
  3.2173e+06   2.46e-24
  3.3184e+06   2.18e-24
  3.4228e+06   1.95e-24
  3.5304e+06   1.74e-24
  3.6414e+06   1.54e-24
  3.7559e+06   1.36e-24
  3.8740e+06   1.21e-24
  3.9958e+06   1.07e-24
  4.1215e+06   9.37e-25
  4.2511e+06   8.22e-25
  4.3848e+06   7.25e-25
  4.5227e+06   6.34e-25
  4.6649e+06   5.49e-25
  4.8116e+06   4.79e-25
  4.9629e+06   4.18e-25
  5.1189e+06   3.61e-25
  5.2799e+06   3.08e-25
  5.4459e+06   2.67e-25
  5.6171e+06   2.30e-25
  5.7938e+06   1.95e-25
  5.9760e+06   1.65e-25
  6.1639e+06   1.41e-25
  6.3577e+06   1.19e-25
  6.5576e+06   9.96e-26
  6.7638e+06   8.35e-26
  6.9765e+06   7.03e-26
  7.1959e+06   5.84e-26
  7.4222e+06   4.76e-26
  7.6556e+06   3.97e-26
  7.8963e+06   3.28e-26
  8.1446e+06   2.66e-26
  8.4007e+06   2.13e-26
  8.6649e+06   1.75e-26
  8.9373e+06   1.41e-26
  9.2184e+06   1.11e-26
  9.5082e+06   8.75e-27
  9.8072e+06   6.98e-27
  1.0116e+07   5.45e-27
  1.0434e+07   4.15e-27
  1.0762e+07   3.19e-27
  1.1100e+07   2.44e-27
  1.1449e+07   1.82e-27
  1.1809e+07   1.31e-27
  1.2181e+07   9.60e-28
  1.2564e+07   6.82e-28
  1.2959e+07   4.64e-28
  1.3366e+07   3.05e-28
  1.3786e+07   2.05e-28
  1.4220e+07   1.30e-28
