#  E [MeV]   Flux [# cm^{-2} s^{-1}  MeV^{-1}]
  3.0000e+04   2.66e-24
  3.0962e+04   2.55e-24
  3.1955e+04   2.45e-24
  3.2979e+04   2.35e-24
  3.4037e+04   2.25e-24
  3.5128e+04   2.16e-24
  3.6254e+04   2.08e-24
  3.7417e+04   1.99e-24
  3.8616e+04   1.91e-24
  3.9855e+04   1.83e-24
  4.1132e+04   1.76e-24
  4.2451e+04   1.69e-24
  4.3812e+04   1.62e-24
  4.5217e+04   1.55e-24
  4.6667e+04   1.49e-24
  4.8163e+04   1.42e-24
  4.9707e+04   1.37e-24
  5.1301e+04   1.31e-24
  5.2946e+04   1.25e-24
  5.4644e+04   1.20e-24
  5.6396e+04   1.15e-24
  5.8204e+04   1.10e-24
  6.0070e+04   1.06e-24
  6.1996e+04   1.01e-24
  6.3984e+04   9.69e-25
  6.6035e+04   9.28e-25
  6.8153e+04   8.88e-25
  7.0338e+04   8.50e-25
  7.2593e+04   8.14e-25
  7.4921e+04   7.79e-25
  7.7323e+04   7.45e-25
  7.9802e+04   7.13e-25
  8.2361e+04   6.82e-25
  8.5002e+04   6.52e-25
  8.7727e+04   6.24e-25
  9.0540e+04   5.96e-25
  9.3443e+04   5.70e-25
  9.6439e+04   5.45e-25
  9.9531e+04   5.20e-25
  1.0272e+05   4.97e-25
  1.0602e+05   4.75e-25
  1.0942e+05   4.53e-25
  1.1292e+05   4.33e-25
  1.1654e+05   4.13e-25
  1.2028e+05   3.94e-25
  1.2414e+05   3.75e-25
  1.2812e+05   3.58e-25
  1.3223e+05   3.41e-25
  1.3646e+05   3.25e-25
  1.4084e+05   3.09e-25
  1.4536e+05   2.94e-25
  1.5002e+05   2.80e-25
  1.5483e+05   2.66e-25
  1.5979e+05   2.53e-25
  1.6491e+05   2.40e-25
  1.7020e+05   2.28e-25
  1.7566e+05   2.17e-25
  1.8129e+05   2.05e-25
  1.8710e+05   1.95e-25
  1.9310e+05   1.84e-25
  1.9929e+05   1.74e-25
  2.0568e+05   1.65e-25
  2.1228e+05   1.56e-25
  2.1909e+05   1.47e-25
  2.2611e+05   1.39e-25
  2.3336e+05   1.31e-25
  2.4084e+05   1.23e-25
  2.4856e+05   1.16e-25
  2.5653e+05   1.10e-25
  2.6476e+05   1.03e-25
  2.7325e+05   9.72e-26
  2.8201e+05   9.15e-26
  2.9105e+05   8.60e-26
  3.0038e+05   8.08e-26
  3.1002e+05   7.59e-26
  3.1996e+05   7.12e-26
  3.3021e+05   6.68e-26
  3.4080e+05   6.26e-26
  3.5173e+05   5.86e-26
  3.6301e+05   5.48e-26
  3.7465e+05   5.12e-26
  3.8666e+05   4.78e-26
  3.9905e+05   4.46e-26
  4.1185e+05   4.16e-26
  4.2506e+05   3.87e-26
  4.3868e+05   3.60e-26
  4.5275e+05   3.35e-26
  4.6727e+05   3.11e-26
  4.8225e+05   2.88e-26
  4.9771e+05   2.67e-26
  5.1367e+05   2.48e-26
  5.3014e+05   2.29e-26
  5.4714e+05   2.12e-26
  5.6468e+05   1.96e-26
  5.8278e+05   1.81e-26
  6.0147e+05   1.67e-26
  6.2075e+05   1.54e-26
  6.4066e+05   1.41e-26
  6.6120e+05   1.30e-26
  6.8240e+05   1.20e-26
  7.0428e+05   1.10e-26
  7.2686e+05   1.01e-26
  7.5017e+05   9.24e-27
  7.7422e+05   8.48e-27
  7.9904e+05   7.76e-27
  8.2466e+05   7.10e-27
  8.5110e+05   6.49e-27
  8.7839e+05   5.93e-27
  9.0656e+05   5.41e-27
  9.3562e+05   4.93e-27
  9.6562e+05   4.50e-27
  9.9658e+05   4.10e-27
  1.0285e+06   3.73e-27
  1.0615e+06   3.39e-27
  1.0956e+06   3.09e-27
  1.1307e+06   2.81e-27
  1.1669e+06   2.55e-27
  1.2043e+06   2.31e-27
  1.2430e+06   2.10e-27
  1.2828e+06   1.91e-27
  1.3239e+06   1.72e-27
  1.3664e+06   1.56e-27
  1.4102e+06   1.41e-27
  1.4554e+06   1.28e-27
  1.5021e+06   1.15e-27
  1.5502e+06   1.04e-27
  1.6000e+06   9.39e-28
  1.6513e+06   8.44e-28
  1.7042e+06   7.59e-28
  1.7588e+06   6.84e-28
  1.8152e+06   6.14e-28
  1.8734e+06   5.49e-28
  1.9335e+06   4.94e-28
  1.9955e+06   4.43e-28
  2.0595e+06   3.95e-28
  2.1255e+06   3.52e-28
  2.1937e+06   3.16e-28
  2.2640e+06   2.82e-28
  2.3366e+06   2.50e-28
  2.4115e+06   2.22e-28
  2.4888e+06   1.98e-28
  2.5686e+06   1.76e-28
  2.6510e+06   1.55e-28
  2.7360e+06   1.38e-28
  2.8237e+06   1.22e-28
  2.9142e+06   1.07e-28
  3.0077e+06   9.39e-29
  3.1041e+06   8.31e-29
  3.2036e+06   7.29e-29
  3.3064e+06   6.34e-29
  3.4124e+06   5.55e-29
  3.5218e+06   4.87e-29
  3.6347e+06   4.23e-29
  3.7512e+06   3.64e-29
  3.8715e+06   3.19e-29
  3.9957e+06   2.77e-29
  4.1238e+06   2.38e-29
  4.2560e+06   2.05e-29
  4.3924e+06   1.78e-29
  4.5333e+06   1.53e-29
  4.6786e+06   1.30e-29
  4.8286e+06   1.11e-29
  4.9835e+06   9.58e-30
  5.1433e+06   8.14e-30
  5.3082e+06   6.83e-30
  5.4784e+06   5.87e-30
  5.6540e+06   4.99e-30
  5.8353e+06   4.19e-30
  6.0224e+06   3.51e-30
  6.2155e+06   2.99e-30
  6.4148e+06   2.51e-30
  6.6205e+06   2.08e-30
  6.8327e+06   1.75e-30
  7.0518e+06   1.48e-30
  7.2779e+06   1.23e-30
  7.5113e+06   1.01e-30
  7.7521e+06   8.57e-31
  8.0007e+06   7.16e-31
  8.2572e+06   5.90e-31
  8.5219e+06   4.88e-31
  8.7952e+06   4.08e-31
  9.0772e+06   3.38e-31
  9.3682e+06   2.75e-31
  9.6686e+06   2.29e-31
  9.9786e+06   1.90e-31
  1.0299e+07   1.55e-31
  1.0629e+07   1.26e-31
  1.0970e+07   1.04e-31
  1.1321e+07   8.43e-32
  1.1684e+07   6.77e-32
  1.2059e+07   5.39e-32
  1.2446e+07   4.27e-32
  1.2845e+07   3.33e-32
  1.3256e+07   2.55e-32
  1.3681e+07   1.93e-32
  1.4120e+07   1.43e-32
  1.4573e+07   1.04e-32
  1.5040e+07   7.43e-33
  1.5522e+07   5.28e-33
  1.6020e+07   3.65e-33
