#  E [MeV]   Flux [# cm^{-2} s^{-1}  MeV^{-1}]
  3.0000e+04   2.30e-20
  3.1123e+04   2.20e-20
  3.2288e+04   2.10e-20
  3.3497e+04   2.01e-20
  3.4751e+04   1.92e-20
  3.6051e+04   1.83e-20
  3.7401e+04   1.75e-20
  3.8801e+04   1.67e-20
  4.0253e+04   1.60e-20
  4.1760e+04   1.52e-20
  4.3324e+04   1.45e-20
  4.4945e+04   1.39e-20
  4.6628e+04   1.32e-20
  4.8373e+04   1.26e-20
  5.0184e+04   1.20e-20
  5.2063e+04   1.15e-20
  5.4011e+04   1.10e-20
  5.6033e+04   1.04e-20
  5.8131e+04   9.95e-21
  6.0307e+04   9.49e-21
  6.2564e+04   9.04e-21
  6.4906e+04   8.61e-21
  6.7336e+04   8.21e-21
  6.9857e+04   7.82e-21
  7.2472e+04   7.44e-21
  7.5184e+04   7.09e-21
  7.7999e+04   6.74e-21
  8.0919e+04   6.42e-21
  8.3948e+04   6.11e-21
  8.7090e+04   5.81e-21
  9.0350e+04   5.53e-21
  9.3732e+04   5.26e-21
  9.7241e+04   5.00e-21
  1.0088e+05   4.76e-21
  1.0466e+05   4.52e-21
  1.0858e+05   4.30e-21
  1.1264e+05   4.08e-21
  1.1686e+05   3.88e-21
  1.2123e+05   3.69e-21
  1.2577e+05   3.50e-21
  1.3048e+05   3.32e-21
  1.3536e+05   3.15e-21
  1.4043e+05   2.99e-21
  1.4568e+05   2.84e-21
  1.5114e+05   2.69e-21
  1.5680e+05   2.56e-21
  1.6266e+05   2.42e-21
  1.6875e+05   2.30e-21
  1.7507e+05   2.18e-21
  1.8162e+05   2.06e-21
  1.8842e+05   1.95e-21
  1.9548e+05   1.85e-21
  2.0279e+05   1.75e-21
  2.1039e+05   1.65e-21
  2.1826e+05   1.56e-21
  2.2643e+05   1.48e-21
  2.3491e+05   1.39e-21
  2.4370e+05   1.32e-21
  2.5282e+05   1.24e-21
  2.6229e+05   1.17e-21
  2.7211e+05   1.10e-21
  2.8229e+05   1.04e-21
  2.9286e+05   9.79e-22
  3.0382e+05   9.21e-22
  3.1519e+05   8.66e-22
  3.2699e+05   8.14e-22
  3.3923e+05   7.64e-22
  3.5193e+05   7.17e-22
  3.6511e+05   6.72e-22
  3.7877e+05   6.30e-22
  3.9295e+05   5.89e-22
  4.0766e+05   5.51e-22
  4.2292e+05   5.15e-22
  4.3875e+05   4.81e-22
  4.5518e+05   4.49e-22
  4.7222e+05   4.18e-22
  4.8989e+05   3.89e-22
  5.0823e+05   3.62e-22
  5.2726e+05   3.36e-22
  5.4699e+05   3.12e-22
  5.6747e+05   2.90e-22
  5.8871e+05   2.68e-22
  6.1075e+05   2.48e-22
  6.3361e+05   2.30e-22
  6.5733e+05   2.13e-22
  6.8194e+05   1.97e-22
  7.0746e+05   1.82e-22
  7.3395e+05   1.68e-22
  7.6142e+05   1.55e-22
  7.8992e+05   1.43e-22
  8.1949e+05   1.32e-22
  8.5017e+05   1.22e-22
  8.8199e+05   1.13e-22
  9.1501e+05   1.04e-22
  9.4926e+05   9.59e-23
  9.8479e+05   8.84e-23
  1.0217e+06   8.15e-23
  1.0599e+06   7.51e-23
  1.0996e+06   6.92e-23
  1.1407e+06   6.37e-23
  1.1834e+06   5.86e-23
  1.2277e+06   5.39e-23
  1.2737e+06   4.96e-23
  1.3214e+06   4.56e-23
  1.3708e+06   4.19e-23
  1.4222e+06   3.85e-23
  1.4754e+06   3.54e-23
  1.5306e+06   3.25e-23
  1.5879e+06   2.98e-23
  1.6474e+06   2.74e-23
  1.7090e+06   2.51e-23
  1.7730e+06   2.30e-23
  1.8394e+06   2.11e-23
  1.9082e+06   1.93e-23
  1.9797e+06   1.76e-23
  2.0538e+06   1.61e-23
  2.1306e+06   1.47e-23
  2.2104e+06   1.34e-23
  2.2931e+06   1.23e-23
  2.3790e+06   1.11e-23
  2.4680e+06   1.02e-23
  2.5604e+06   9.23e-24
  2.6563e+06   8.36e-24
  2.7557e+06   7.59e-24
  2.8589e+06   6.87e-24
  2.9659e+06   6.20e-24
  3.0769e+06   5.60e-24
  3.1921e+06   5.05e-24
  3.3116e+06   4.54e-24
  3.4355e+06   4.07e-24
  3.5641e+06   3.66e-24
  3.6976e+06   3.27e-24
  3.8360e+06   2.92e-24
  3.9796e+06   2.60e-24
  4.1285e+06   2.31e-24
  4.2831e+06   2.05e-24
  4.4434e+06   1.82e-24
  4.6097e+06   1.60e-24
  4.7823e+06   1.40e-24
  4.9613e+06   1.23e-24
  5.1470e+06   1.08e-24
  5.3397e+06   9.36e-25
  5.5396e+06   8.17e-25
  5.7470e+06   7.09e-25
  5.9621e+06   6.09e-25
  6.1853e+06   5.26e-25
  6.4168e+06   4.51e-25
  6.6570e+06   3.83e-25
  6.9062e+06   3.27e-25
  7.1647e+06   2.77e-25
  7.4329e+06   2.33e-25
  7.7112e+06   1.95e-25
  7.9998e+06   1.64e-25
  8.2993e+06   1.35e-25
  8.6100e+06   1.11e-25
  8.9323e+06   9.17e-26
  9.2666e+06   7.44e-26
  9.6135e+06   5.99e-26
  9.9734e+06   4.84e-26
  1.0347e+07   3.85e-26
  1.0734e+07   3.01e-26
  1.1136e+07   2.38e-26
  1.1553e+07   1.84e-26
  1.1985e+07   1.39e-26
  1.2434e+07   1.07e-26
  1.2899e+07   8.00e-27
  1.3382e+07   5.83e-27
  1.3883e+07   4.28e-27
  1.4403e+07   3.06e-27
  1.4942e+07   2.12e-27
  1.5501e+07   1.47e-27
  1.6081e+07   9.93e-28
  1.6683e+07   6.44e-28
  1.7308e+07   4.11e-28
  1.7956e+07   2.56e-28
  1.8628e+07   1.51e-28
  1.9325e+07   8.63e-29
  2.0049e+07   4.76e-29
  2.0799e+07   2.46e-29
  2.1578e+07   1.19e-29
  2.2386e+07   5.51e-30
  2.3224e+07   2.31e-30
  2.4093e+07   8.78e-31
  2.4995e+07   3.04e-31
  2.5930e+07   9.15e-32
  2.6901e+07   2.34e-32
  2.7908e+07   5.09e-33
  2.8953e+07   8.84e-34
  3.0037e+07   1.17e-34
  3.1161e+07   1.15e-35
  3.2327e+07   7.70e-37
  3.3537e+07   3.22e-38
  3.4793e+07   7.72e-40
  3.6095e+07   9.21e-42
  3.7446e+07   4.66e-44
  3.8848e+07   8.11e-47
  4.0302e+07   3.72e-50
  4.1811e+07   3.18e-54
  4.3376e+07   3.28e-59
  4.5000e+07   2.26e-65
