#  E [MeV]   Flux [# cm^{-2} s^{-1}  MeV^{-1}]
  3.0000e+04   3.42e-20
  3.1123e+04   3.27e-20
  3.2288e+04   3.12e-20
  3.3497e+04   2.98e-20
  3.4751e+04   2.85e-20
  3.6051e+04   2.72e-20
  3.7401e+04   2.60e-20
  3.8801e+04   2.48e-20
  4.0253e+04   2.37e-20
  4.1760e+04   2.26e-20
  4.3324e+04   2.16e-20
  4.4945e+04   2.06e-20
  4.6628e+04   1.96e-20
  4.8373e+04   1.87e-20
  5.0184e+04   1.79e-20
  5.2063e+04   1.70e-20
  5.4011e+04   1.63e-20
  5.6033e+04   1.55e-20
  5.8131e+04   1.48e-20
  6.0307e+04   1.41e-20
  6.2564e+04   1.34e-20
  6.4906e+04   1.28e-20
  6.7336e+04   1.22e-20
  6.9857e+04   1.16e-20
  7.2472e+04   1.10e-20
  7.5184e+04   1.05e-20
  7.7999e+04   1.00e-20
  8.0919e+04   9.52e-21
  8.3948e+04   9.05e-21
  8.7090e+04   8.61e-21
  9.0350e+04   8.19e-21
  9.3732e+04   7.79e-21
  9.7241e+04   7.41e-21
  1.0088e+05   7.04e-21
  1.0466e+05   6.70e-21
  1.0858e+05   6.36e-21
  1.1264e+05   6.05e-21
  1.1686e+05   5.74e-21
  1.2123e+05   5.45e-21
  1.2577e+05   5.18e-21
  1.3048e+05   4.92e-21
  1.3536e+05   4.67e-21
  1.4043e+05   4.43e-21
  1.4568e+05   4.20e-21
  1.5114e+05   3.98e-21
  1.5680e+05   3.78e-21
  1.6266e+05   3.58e-21
  1.6875e+05   3.39e-21
  1.7507e+05   3.21e-21
  1.8162e+05   3.04e-21
  1.8842e+05   2.88e-21
  1.9548e+05   2.72e-21
  2.0279e+05   2.57e-21
  2.1039e+05   2.43e-21
  2.1826e+05   2.30e-21
  2.2643e+05   2.17e-21
  2.3491e+05   2.05e-21
  2.4370e+05   1.93e-21
  2.5282e+05   1.82e-21
  2.6229e+05   1.72e-21
  2.7211e+05   1.62e-21
  2.8229e+05   1.52e-21
  2.9286e+05   1.43e-21
  3.0382e+05   1.35e-21
  3.1519e+05   1.26e-21
  3.2699e+05   1.19e-21
  3.3923e+05   1.11e-21
  3.5193e+05   1.04e-21
  3.6511e+05   9.76e-22
  3.7877e+05   9.13e-22
  3.9295e+05   8.53e-22
  4.0766e+05   7.96e-22
  4.2292e+05   7.43e-22
  4.3875e+05   6.92e-22
  4.5518e+05   6.45e-22
  4.7222e+05   6.00e-22
  4.8989e+05   5.57e-22
  5.0823e+05   5.17e-22
  5.2726e+05   4.80e-22
  5.4699e+05   4.45e-22
  5.6747e+05   4.11e-22
  5.8871e+05   3.80e-22
  6.1075e+05   3.52e-22
  6.3361e+05   3.25e-22
  6.5733e+05   3.00e-22
  6.8194e+05   2.76e-22
  7.0746e+05   2.55e-22
  7.3395e+05   2.35e-22
  7.6142e+05   2.17e-22
  7.8992e+05   2.00e-22
  8.1949e+05   1.84e-22
  8.5017e+05   1.69e-22
  8.8199e+05   1.56e-22
  9.1501e+05   1.44e-22
  9.4926e+05   1.32e-22
  9.8479e+05   1.22e-22
  1.0217e+06   1.12e-22
  1.0599e+06   1.03e-22
  1.0996e+06   9.45e-23
  1.1407e+06   8.68e-23
  1.1834e+06   7.97e-23
  1.2277e+06   7.33e-23
  1.2737e+06   6.73e-23
  1.3214e+06   6.17e-23
  1.3708e+06   5.66e-23
  1.4222e+06   5.20e-23
  1.4754e+06   4.76e-23
  1.5306e+06   4.37e-23
  1.5879e+06   4.01e-23
  1.6474e+06   3.67e-23
  1.7090e+06   3.36e-23
  1.7730e+06   3.08e-23
  1.8394e+06   2.81e-23
  1.9082e+06   2.57e-23
  1.9797e+06   2.35e-23
  2.0538e+06   2.15e-23
  2.1306e+06   1.96e-23
  2.2104e+06   1.79e-23
  2.2931e+06   1.63e-23
  2.3790e+06   1.48e-23
  2.4680e+06   1.34e-23
  2.5604e+06   1.22e-23
  2.6563e+06   1.10e-23
  2.7557e+06   1.00e-23
  2.8589e+06   9.04e-24
  2.9659e+06   8.15e-24
  3.0769e+06   7.35e-24
  3.1921e+06   6.62e-24
  3.3116e+06   5.93e-24
  3.4355e+06   5.32e-24
  3.5641e+06   4.77e-24
  3.6976e+06   4.25e-24
  3.8360e+06   3.79e-24
  3.9796e+06   3.37e-24
  4.1285e+06   2.99e-24
  4.2831e+06   2.64e-24
  4.4434e+06   2.34e-24
  4.6097e+06   2.05e-24
  4.7823e+06   1.79e-24
  4.9613e+06   1.57e-24
  5.1470e+06   1.37e-24
  5.3397e+06   1.19e-24
  5.5396e+06   1.03e-24
  5.7470e+06   8.90e-25
  5.9621e+06   7.60e-25
  6.1853e+06   6.55e-25
  6.4168e+06   5.59e-25
  6.6570e+06   4.72e-25
  6.9062e+06   4.01e-25
  7.1647e+06   3.37e-25
  7.4329e+06   2.81e-25
  7.7112e+06   2.35e-25
  7.9998e+06   1.95e-25
  8.2993e+06   1.59e-25
  8.6100e+06   1.30e-25
  8.9323e+06   1.06e-25
  9.2666e+06   8.52e-26
  9.6135e+06   6.80e-26
  9.9734e+06   5.42e-26
  1.0347e+07   4.24e-26
  1.0734e+07   3.29e-26
  1.1136e+07   2.55e-26
  1.1553e+07   1.94e-26
  1.1985e+07   1.44e-26
  1.2434e+07   1.08e-26
  1.2899e+07   7.91e-27
  1.3382e+07   5.62e-27
  1.3883e+07   4.03e-27
  1.4403e+07   2.80e-27
  1.4942e+07   1.87e-27
  1.5501e+07   1.26e-27
  1.6081e+07   8.15e-28
  1.6683e+07   5.05e-28
  1.7308e+07   3.09e-28
  1.7956e+07   1.82e-28
  1.8628e+07   1.01e-28
  1.9325e+07   5.44e-29
  2.0049e+07   2.78e-29
  2.0799e+07   1.32e-29
  2.1578e+07   5.89e-30
  2.2386e+07   2.45e-30
  2.3224e+07   9.12e-31
  2.4093e+07   3.05e-31
  2.4995e+07   9.10e-32
  2.5930e+07   2.31e-32
  2.6901e+07   4.88e-33
  2.7908e+07   8.51e-34
  2.8953e+07   1.14e-34
  3.0037e+07   1.13e-35
  3.1161e+07   7.93e-37
  3.2327e+07   3.56e-38
  3.3537e+07   9.39e-40
  3.4793e+07   1.31e-41
  3.6095e+07   8.24e-44
  3.7446e+07   1.95e-46
  3.8848e+07   1.38e-49
  4.0302e+07   2.14e-53
  4.1811e+07   4.99e-58
  4.3376e+07   1.07e-63
  4.5000e+07   1.56e-67
