#  E [MeV]   Flux [# cm^{-2} s^{-1}  MeV^{-1}]
  3.0000e+04   6.50e-19
  3.0675e+04   6.26e-19
  3.1366e+04   6.04e-19
  3.2072e+04   5.82e-19
  3.2794e+04   5.61e-19
  3.3533e+04   5.41e-19
  3.4288e+04   5.21e-19
  3.5060e+04   5.02e-19
  3.5849e+04   4.83e-19
  3.6656e+04   4.65e-19
  3.7482e+04   4.48e-19
  3.8326e+04   4.31e-19
  3.9188e+04   4.15e-19
  4.0071e+04   3.99e-19
  4.0973e+04   3.84e-19
  4.1896e+04   3.70e-19
  4.2839e+04   3.56e-19
  4.3803e+04   3.42e-19
  4.4790e+04   3.29e-19
  4.5798e+04   3.16e-19
  4.6829e+04   3.04e-19
  4.7884e+04   2.92e-19
  4.8962e+04   2.80e-19
  5.0064e+04   2.69e-19
  5.1191e+04   2.58e-19
  5.2344e+04   2.48e-19
  5.3522e+04   2.38e-19
  5.4727e+04   2.28e-19
  5.5960e+04   2.19e-19
  5.7219e+04   2.10e-19
  5.8508e+04   2.02e-19
  5.9825e+04   1.93e-19
  6.1172e+04   1.85e-19
  6.2549e+04   1.77e-19
  6.3958e+04   1.70e-19
  6.5398e+04   1.63e-19
  6.6870e+04   1.56e-19
  6.8376e+04   1.49e-19
  6.9915e+04   1.42e-19
  7.1489e+04   1.36e-19
  7.3099e+04   1.30e-19
  7.4745e+04   1.25e-19
  7.6428e+04   1.19e-19
  7.8148e+04   1.14e-19
  7.9908e+04   1.09e-19
  8.1707e+04   1.04e-19
  8.3547e+04   9.89e-20
  8.5428e+04   9.44e-20
  8.7351e+04   9.00e-20
  8.9318e+04   8.59e-20
  9.1329e+04   8.19e-20
  9.3385e+04   7.80e-20
  9.5488e+04   7.43e-20
  9.7638e+04   7.08e-20
  9.9836e+04   6.74e-20
  1.0208e+05   6.42e-20
  1.0438e+05   6.11e-20
  1.0673e+05   5.81e-20
  1.0914e+05   5.52e-20
  1.1159e+05   5.25e-20
  1.1411e+05   4.99e-20
  1.1667e+05   4.74e-20
  1.1930e+05   4.50e-20
  1.2199e+05   4.27e-20
  1.2473e+05   4.05e-20
  1.2754e+05   3.85e-20
  1.3041e+05   3.64e-20
  1.3335e+05   3.45e-20
  1.3635e+05   3.27e-20
  1.3942e+05   3.09e-20
  1.4256e+05   2.93e-20
  1.4577e+05   2.77e-20
  1.4905e+05   2.62e-20
  1.5241e+05   2.47e-20
  1.5584e+05   2.34e-20
  1.5935e+05   2.21e-20
  1.6294e+05   2.09e-20
  1.6661e+05   1.97e-20
  1.7036e+05   1.85e-20
  1.7419e+05   1.75e-20
  1.7812e+05   1.65e-20
  1.8213e+05   1.55e-20
  1.8623e+05   1.46e-20
  1.9042e+05   1.37e-20
  1.9471e+05   1.29e-20
  1.9909e+05   1.22e-20
  2.0357e+05   1.14e-20
  2.0816e+05   1.07e-20
  2.1284e+05   1.01e-20
  2.1763e+05   9.43e-21
  2.2253e+05   8.87e-21
  2.2755e+05   8.33e-21
  2.3267e+05   7.80e-21
  2.3791e+05   7.30e-21
  2.4326e+05   6.82e-21
  2.4874e+05   6.39e-21
  2.5434e+05   5.98e-21
  2.6007e+05   5.59e-21
  2.6592e+05   5.22e-21
  2.7191e+05   4.86e-21
  2.7803e+05   4.54e-21
  2.8429e+05   4.24e-21
  2.9069e+05   3.95e-21
  2.9724e+05   3.68e-21
  3.0393e+05   3.42e-21
  3.1077e+05   3.18e-21
  3.1777e+05   2.96e-21
  3.2493e+05   2.76e-21
  3.3224e+05   2.56e-21
  3.3972e+05   2.37e-21
  3.4737e+05   2.19e-21
  3.5519e+05   2.04e-21
  3.6319e+05   1.90e-21
  3.7137e+05   1.76e-21
  3.7973e+05   1.62e-21
  3.8828e+05   1.50e-21
  3.9702e+05   1.39e-21
  4.0596e+05   1.29e-21
  4.1510e+05   1.19e-21
  4.2444e+05   1.10e-21
  4.3400e+05   1.01e-21
  4.4377e+05   9.32e-22
  4.5376e+05   8.62e-22
  4.6398e+05   7.95e-22
  4.7443e+05   7.30e-22
  4.8511e+05   6.68e-22
  4.9603e+05   6.16e-22
  5.0720e+05   5.69e-22
  5.1862e+05   5.23e-22
  5.3030e+05   4.79e-22
  5.4224e+05   4.37e-22
  5.5444e+05   4.01e-22
  5.6693e+05   3.69e-22
  5.7969e+05   3.39e-22
  5.9274e+05   3.10e-22
  6.0609e+05   2.82e-22
  6.1974e+05   2.58e-22
  6.3369e+05   2.37e-22
  6.4796e+05   2.17e-22
  6.6255e+05   1.99e-22
  6.7746e+05   1.80e-22
  6.9272e+05   1.64e-22
  7.0831e+05   1.51e-22
  7.2426e+05   1.38e-22
  7.4057e+05   1.26e-22
  7.5724e+05   1.14e-22
  7.7429e+05   1.03e-22
  7.9172e+05   9.50e-23
  8.0955e+05   8.70e-23
  8.2778e+05   7.93e-23
  8.4641e+05   7.20e-23
  8.6547e+05   6.50e-23
  8.8496e+05   5.97e-23
  9.0488e+05   5.47e-23
  9.2526e+05   4.99e-23
  9.4609e+05   4.53e-23
  9.6739e+05   4.10e-23
  9.8917e+05   3.75e-23
  1.0114e+06   3.45e-23
  1.0342e+06   3.16e-23
  1.0575e+06   2.88e-23
  1.0813e+06   2.61e-23
  1.1057e+06   2.40e-23
  1.1305e+06   2.21e-23
  1.1560e+06   2.03e-23
  1.1820e+06   1.86e-23
  1.2086e+06   1.70e-23
  1.2359e+06   1.56e-23
  1.2637e+06   1.45e-23
  1.2921e+06   1.34e-23
  1.3212e+06   1.24e-23
  1.3510e+06   1.14e-23
  1.3814e+06   1.05e-23
  1.4125e+06   9.76e-24
  1.4443e+06   9.07e-24
  1.4768e+06   8.42e-24
  1.5101e+06   7.79e-24
  1.5441e+06   7.19e-24
  1.5788e+06   6.74e-24
  1.6144e+06   6.30e-24
  1.6507e+06   5.89e-24
  1.6879e+06   5.48e-24
  1.7259e+06   5.10e-24
  1.7648e+06   4.79e-24
  1.8045e+06   4.49e-24
  1.8451e+06   4.20e-24
  1.8867e+06   3.93e-24
  1.9291e+06   3.67e-24
  1.9726e+06   3.44e-24
  2.0170e+06   3.22e-24
  2.0624e+06   3.01e-24
  2.1088e+06   2.81e-24
  2.1563e+06   2.62e-24
  2.2049e+06   2.44e-24
  2.2545e+06   2.27e-24
  2.3053e+06   2.11e-24
  2.3572e+06   1.96e-24
  2.4102e+06   1.81e-24
  2.4645e+06   1.68e-24
  2.5200e+06   1.58e-24
