#  E [MeV]   Flux [# cm^{-2} s^{-1}  MeV^{-1}]
  3.0000e+04   2.45e-25
  3.1141e+04   2.36e-25
  3.2326e+04   2.26e-25
  3.3556e+04   2.17e-25
  3.4832e+04   2.09e-25
  3.6157e+04   2.01e-25
  3.7533e+04   1.93e-25
  3.8961e+04   1.85e-25
  4.0443e+04   1.78e-25
  4.1982e+04   1.71e-25
  4.3579e+04   1.64e-25
  4.5237e+04   1.58e-25
  4.6958e+04   1.51e-25
  4.8744e+04   1.45e-25
  5.0598e+04   1.40e-25
  5.2523e+04   1.34e-25
  5.4521e+04   1.29e-25
  5.6596e+04   1.23e-25
  5.8749e+04   1.18e-25
  6.0984e+04   1.14e-25
  6.3304e+04   1.09e-25
  6.5712e+04   1.05e-25
  6.8212e+04   1.00e-25
  7.0807e+04   9.61e-26
  7.3500e+04   9.22e-26
  7.6297e+04   8.84e-26
  7.9199e+04   8.47e-26
  8.2212e+04   8.12e-26
  8.5340e+04   7.78e-26
  8.8586e+04   7.45e-26
  9.1956e+04   7.13e-26
  9.5455e+04   6.83e-26
  9.9086e+04   6.54e-26
  1.0286e+05   6.26e-26
  1.0677e+05   5.99e-26
  1.1083e+05   5.73e-26
  1.1505e+05   5.48e-26
  1.1942e+05   5.24e-26
  1.2397e+05   5.00e-26
  1.2868e+05   4.78e-26
  1.3358e+05   4.57e-26
  1.3866e+05   4.36e-26
  1.4394e+05   4.16e-26
  1.4941e+05   3.97e-26
  1.5509e+05   3.79e-26
  1.6100e+05   3.61e-26
  1.6712e+05   3.44e-26
  1.7348e+05   3.28e-26
  1.8008e+05   3.12e-26
  1.8693e+05   2.97e-26
  1.9404e+05   2.82e-26
  2.0142e+05   2.68e-26
  2.0908e+05   2.55e-26
  2.1704e+05   2.42e-26
  2.2529e+05   2.29e-26
  2.3387e+05   2.18e-26
  2.4276e+05   2.06e-26
  2.5200e+05   1.95e-26
  2.6158e+05   1.85e-26
  2.7154e+05   1.75e-26
  2.8187e+05   1.65e-26
  2.9259e+05   1.56e-26
  3.0372e+05   1.47e-26
  3.1527e+05   1.39e-26
  3.2727e+05   1.30e-26
  3.3972e+05   1.23e-26
  3.5264e+05   1.15e-26
  3.6606e+05   1.08e-26
  3.7998e+05   1.02e-26
  3.9444e+05   9.54e-27
  4.0945e+05   8.93e-27
  4.2502e+05   8.36e-27
  4.4119e+05   7.82e-27
  4.5798e+05   7.30e-27
  4.7540e+05   6.82e-27
  4.9348e+05   6.36e-27
  5.1226e+05   5.92e-27
  5.3175e+05   5.51e-27
  5.5198e+05   5.13e-27
  5.7297e+05   4.77e-27
  5.9477e+05   4.43e-27
  6.1740e+05   4.11e-27
  6.4089e+05   3.81e-27
  6.6527e+05   3.53e-27
  6.9058e+05   3.27e-27
  7.1685e+05   3.02e-27
  7.4412e+05   2.79e-27
  7.7243e+05   2.58e-27
  8.0181e+05   2.39e-27
  8.3232e+05   2.20e-27
  8.6398e+05   2.04e-27
  8.9685e+05   1.88e-27
  9.3097e+05   1.73e-27
  9.6638e+05   1.60e-27
  1.0031e+06   1.47e-27
  1.0413e+06   1.36e-27
  1.0809e+06   1.25e-27
  1.1220e+06   1.15e-27
  1.1647e+06   1.06e-27
  1.2090e+06   9.76e-28
  1.2550e+06   8.98e-28
  1.3028e+06   8.26e-28
  1.3523e+06   7.59e-28
  1.4038e+06   6.98e-28
  1.4572e+06   6.42e-28
  1.5126e+06   5.89e-28
  1.5702e+06   5.41e-28
  1.6299e+06   4.97e-28
  1.6919e+06   4.56e-28
  1.7563e+06   4.18e-28
  1.8231e+06   3.84e-28
  1.8925e+06   3.51e-28
  1.9645e+06   3.22e-28
  2.0392e+06   2.95e-28
  2.1168e+06   2.69e-28
  2.1973e+06   2.47e-28
  2.2809e+06   2.25e-28
  2.3677e+06   2.06e-28
  2.4577e+06   1.88e-28
  2.5512e+06   1.71e-28
  2.6483e+06   1.55e-28
  2.7490e+06   1.41e-28
  2.8536e+06   1.29e-28
  2.9622e+06   1.17e-28
  3.0749e+06   1.06e-28
  3.1918e+06   9.57e-29
  3.3133e+06   8.64e-29
  3.4393e+06   7.80e-29
  3.5702e+06   7.04e-29
  3.7060e+06   6.33e-29
  3.8470e+06   5.68e-29
  3.9933e+06   5.11e-29
  4.1452e+06   4.57e-29
  4.3029e+06   4.08e-29
  4.4666e+06   3.65e-29
  4.6366e+06   3.25e-29
  4.8129e+06   2.88e-29
  4.9960e+06   2.56e-29
  5.1861e+06   2.26e-29
  5.3834e+06   1.99e-29
  5.5882e+06   1.75e-29
  5.8008e+06   1.54e-29
  6.0215e+06   1.34e-29
  6.2506e+06   1.17e-29
  6.4883e+06   1.02e-29
  6.7352e+06   8.80e-30
  6.9914e+06   7.62e-30
  7.2574e+06   6.56e-30
  7.5335e+06   5.59e-30
  7.8201e+06   4.78e-30
  8.1176e+06   4.07e-30
  8.4264e+06   3.42e-30
  8.7470e+06   2.88e-30
  9.0797e+06   2.41e-30
  9.4251e+06   1.99e-30
  9.7837e+06   1.65e-30
  1.0156e+07   1.35e-30
  1.0542e+07   1.09e-30
  1.0943e+07   8.81e-31
  1.1360e+07   7.06e-31
  1.1792e+07   5.56e-31
  1.2240e+07   4.34e-31
  1.2706e+07   3.37e-31
  1.3189e+07   2.56e-31
  1.3691e+07   1.92e-31
  1.4212e+07   1.42e-31
  1.4753e+07   1.03e-31
  1.5314e+07   7.31e-32
  1.5897e+07   5.12e-32
  1.6501e+07   3.47e-32
  1.7129e+07   2.28e-32
  1.7781e+07   1.47e-32
  1.8457e+07   9.06e-33
  1.9159e+07   5.33e-33
  1.9888e+07   3.04e-33
  2.0645e+07   1.63e-33
  2.1430e+07   8.14e-34
  2.2245e+07   3.86e-34
  2.3092e+07   1.67e-34
  2.3970e+07   6.50e-35
  2.4882e+07   2.32e-35
  2.5829e+07   7.19e-36
  2.6811e+07   1.89e-36
  2.7831e+07   4.25e-37
  2.8890e+07   7.66e-38
  2.9989e+07   1.05e-38
  3.1130e+07   1.09e-39
  3.2314e+07   7.70e-41
  3.3544e+07   3.42e-42
  3.4820e+07   8.86e-44
  3.6144e+07   1.16e-45
  3.7519e+07   6.40e-48
  3.8947e+07   1.24e-50
  4.0428e+07   6.41e-54
  4.1966e+07   6.06e-58
  4.3563e+07   6.68e-63
  4.5220e+07   4.63e-69
  4.6941e+07   3.79e-72
  4.8726e+07   3.52e-72
  5.0580e+07   3.29e-72
