#  E [MeV]   Flux [# cm^{-2} s^{-1}  MeV^{-1}]
  3.0000e+04   3.47e-24
  3.0962e+04   3.35e-24
  3.1955e+04   3.23e-24
  3.2979e+04   3.12e-24
  3.4037e+04   3.01e-24
  3.5128e+04   2.90e-24
  3.6254e+04   2.80e-24
  3.7417e+04   2.70e-24
  3.8616e+04   2.60e-24
  3.9855e+04   2.51e-24
  4.1132e+04   2.42e-24
  4.2451e+04   2.33e-24
  4.3812e+04   2.25e-24
  4.5217e+04   2.17e-24
  4.6667e+04   2.09e-24
  4.8163e+04   2.01e-24
  4.9707e+04   1.93e-24
  5.1301e+04   1.86e-24
  5.2946e+04   1.79e-24
  5.4644e+04   1.73e-24
  5.6396e+04   1.66e-24
  5.8204e+04   1.60e-24
  6.0070e+04   1.54e-24
  6.1996e+04   1.48e-24
  6.3984e+04   1.42e-24
  6.6035e+04   1.36e-24
  6.8153e+04   1.31e-24
  7.0338e+04   1.26e-24
  7.2593e+04   1.21e-24
  7.4921e+04   1.16e-24
  7.7323e+04   1.11e-24
  7.9802e+04   1.07e-24
  8.2361e+04   1.03e-24
  8.5002e+04   9.83e-25
  8.7727e+04   9.43e-25
  9.0540e+04   9.04e-25
  9.3443e+04   8.66e-25
  9.6439e+04   8.30e-25
  9.9531e+04   7.95e-25
  1.0272e+05   7.61e-25
  1.0602e+05   7.29e-25
  1.0942e+05   6.97e-25
  1.1292e+05   6.67e-25
  1.1654e+05   6.37e-25
  1.2028e+05   6.09e-25
  1.2414e+05   5.82e-25
  1.2812e+05   5.56e-25
  1.3223e+05   5.31e-25
  1.3646e+05   5.07e-25
  1.4084e+05   4.84e-25
  1.4536e+05   4.62e-25
  1.5002e+05   4.40e-25
  1.5483e+05   4.20e-25
  1.5979e+05   4.00e-25
  1.6491e+05   3.81e-25
  1.7020e+05   3.63e-25
  1.7566e+05   3.45e-25
  1.8129e+05   3.29e-25
  1.8710e+05   3.12e-25
  1.9310e+05   2.97e-25
  1.9929e+05   2.82e-25
  2.0568e+05   2.68e-25
  2.1228e+05   2.54e-25
  2.1909e+05   2.41e-25
  2.2611e+05   2.29e-25
  2.3336e+05   2.17e-25
  2.4084e+05   2.06e-25
  2.4856e+05   1.95e-25
  2.5653e+05   1.84e-25
  2.6476e+05   1.74e-25
  2.7325e+05   1.65e-25
  2.8201e+05   1.56e-25
  2.9105e+05   1.47e-25
  3.0038e+05   1.39e-25
  3.1002e+05   1.31e-25
  3.1996e+05   1.24e-25
  3.3021e+05   1.17e-25
  3.4080e+05   1.10e-25
  3.5173e+05   1.03e-25
  3.6301e+05   9.74e-26
  3.7465e+05   9.16e-26
  3.8666e+05   8.61e-26
  3.9905e+05   8.08e-26
  4.1185e+05   7.59e-26
  4.2506e+05   7.11e-26
  4.3868e+05   6.67e-26
  4.5275e+05   6.25e-26
  4.6727e+05   5.85e-26
  4.8225e+05   5.47e-26
  4.9771e+05   5.12e-26
  5.1367e+05   4.78e-26
  5.3014e+05   4.46e-26
  5.4714e+05   4.17e-26
  5.6468e+05   3.89e-26
  5.8278e+05   3.62e-26
  6.0147e+05   3.38e-26
  6.2075e+05   3.14e-26
  6.4066e+05   2.93e-26
  6.6120e+05   2.72e-26
  6.8240e+05   2.53e-26
  7.0428e+05   2.35e-26
  7.2686e+05   2.19e-26
  7.5017e+05   2.03e-26
  7.7422e+05   1.88e-26
  7.9904e+05   1.75e-26
  8.2466e+05   1.62e-26
  8.5110e+05   1.50e-26
  8.7839e+05   1.39e-26
  9.0656e+05   1.29e-26
  9.3562e+05   1.19e-26
  9.6562e+05   1.10e-26
  9.9658e+05   1.02e-26
  1.0285e+06   9.43e-27
  1.0615e+06   8.72e-27
  1.0956e+06   8.06e-27
  1.1307e+06   7.45e-27
  1.1669e+06   6.88e-27
  1.2043e+06   6.34e-27
  1.2430e+06   5.86e-27
  1.2828e+06   5.40e-27
  1.3239e+06   4.97e-27
  1.3664e+06   4.58e-27
  1.4102e+06   4.23e-27
  1.4554e+06   3.89e-27
  1.5021e+06   3.58e-27
  1.5502e+06   3.30e-27
  1.6000e+06   3.04e-27
  1.6513e+06   2.79e-27
  1.7042e+06   2.56e-27
  1.7588e+06   2.36e-27
  1.8152e+06   2.17e-27
  1.8734e+06   1.99e-27
  1.9335e+06   1.82e-27
  1.9955e+06   1.68e-27
  2.0595e+06   1.54e-27
  2.1255e+06   1.41e-27
  2.1937e+06   1.29e-27
  2.2640e+06   1.18e-27
  2.3366e+06   1.08e-27
  2.4115e+06   9.85e-28
  2.4888e+06   9.02e-28
  2.5686e+06   8.25e-28
  2.6510e+06   7.52e-28
  2.7360e+06   6.85e-28
  2.8237e+06   6.26e-28
  2.9142e+06   5.71e-28
  3.0077e+06   5.19e-28
  3.1041e+06   4.72e-28
  3.2036e+06   4.30e-28
  3.3064e+06   3.90e-28
  3.4124e+06   3.52e-28
  3.5218e+06   3.21e-28
  3.6347e+06   2.91e-28
  3.7512e+06   2.63e-28
  3.8715e+06   2.38e-28
  3.9957e+06   2.16e-28
  4.1238e+06   1.95e-28
  4.2560e+06   1.76e-28
  4.3924e+06   1.59e-28
  4.5333e+06   1.44e-28
  4.6786e+06   1.30e-28
  4.8286e+06   1.17e-28
  4.9835e+06   1.06e-28
  5.1433e+06   9.55e-29
  5.3082e+06   8.60e-29
  5.4784e+06   7.74e-29
  5.6540e+06   7.02e-29
  5.8353e+06   6.34e-29
  6.0224e+06   5.70e-29
  6.2155e+06   5.17e-29
  6.4148e+06   4.70e-29
  6.6205e+06   4.26e-29
  6.8327e+06   3.84e-29
  7.0518e+06   3.52e-29
  7.2779e+06   3.21e-29
  7.5113e+06   2.92e-29
  7.7521e+06   2.67e-29
  8.0007e+06   2.46e-29
  8.2572e+06   2.26e-29
  8.5219e+06   2.07e-29
  8.7952e+06   1.91e-29
  9.0772e+06   1.77e-29
  9.3682e+06   1.63e-29
  9.6686e+06   1.51e-29
  9.9786e+06   1.42e-29
  1.0299e+07   1.33e-29
  1.0629e+07   1.24e-29
  1.0970e+07   1.18e-29
  1.1321e+07   1.12e-29
  1.1684e+07   1.07e-29
  1.2059e+07   1.00e-29
  1.2446e+07   9.95e-30
  1.2845e+07   9.83e-30
  1.3256e+07   9.54e-30
  1.3681e+07   9.38e-30
  1.4120e+07   1.04e-29
  1.4573e+07   1.08e-29
  1.5040e+07   1.08e-29
  1.5522e+07   1.01e-29
  1.6020e+07   9.02e-30
