#  E [GeV]   # per interaction  [GeV^{-1}]
  3.0000e+01   3.12e-02
  3.1232e+01   3.00e-02
  3.2514e+01   2.88e-02
  3.3849e+01   2.77e-02
  3.5238e+01   2.66e-02
  3.6685e+01   2.56e-02
  3.8191e+01   2.46e-02
  3.9759e+01   2.36e-02
  4.1391e+01   2.26e-02
  4.3090e+01   2.17e-02
  4.4859e+01   2.09e-02
  4.6701e+01   2.00e-02
  4.8618e+01   1.92e-02
  5.0614e+01   1.84e-02
  5.2692e+01   1.76e-02
  5.4855e+01   1.69e-02
  5.7107e+01   1.62e-02
  5.9451e+01   1.55e-02
  6.1892e+01   1.49e-02
  6.4433e+01   1.43e-02
  6.7078e+01   1.37e-02
  6.9832e+01   1.31e-02
  7.2699e+01   1.25e-02
  7.5683e+01   1.20e-02
  7.8790e+01   1.14e-02
  8.2025e+01   1.09e-02
  8.5392e+01   1.05e-02
  8.8898e+01   1.00e-02
  9.2547e+01   9.56e-03
  9.6347e+01   9.13e-03
  1.0030e+02   8.72e-03
  1.0442e+02   8.33e-03
  1.0871e+02   7.95e-03
  1.1317e+02   7.59e-03
  1.1782e+02   7.24e-03
  1.2265e+02   6.90e-03
  1.2769e+02   6.58e-03
  1.3293e+02   6.28e-03
  1.3839e+02   5.98e-03
  1.4407e+02   5.70e-03
  1.4998e+02   5.42e-03
  1.5614e+02   5.16e-03
  1.6255e+02   4.91e-03
  1.6922e+02   4.68e-03
  1.7617e+02   4.45e-03
  1.8340e+02   4.23e-03
  1.9093e+02   4.02e-03
  1.9877e+02   3.82e-03
  2.0693e+02   3.63e-03
  2.1543e+02   3.44e-03
  2.2427e+02   3.27e-03
  2.3348e+02   3.10e-03
  2.4306e+02   2.94e-03
  2.5304e+02   2.79e-03
  2.6343e+02   2.65e-03
  2.7424e+02   2.51e-03
  2.8550e+02   2.37e-03
  2.9722e+02   2.25e-03
  3.0942e+02   2.13e-03
  3.2213e+02   2.01e-03
  3.3535e+02   1.90e-03
  3.4912e+02   1.80e-03
  3.6345e+02   1.70e-03
  3.7837e+02   1.61e-03
  3.9390e+02   1.52e-03
  4.1008e+02   1.43e-03
  4.2691e+02   1.35e-03
  4.4444e+02   1.28e-03
  4.6268e+02   1.20e-03
  4.8168e+02   1.14e-03
  5.0145e+02   1.07e-03
  5.2204e+02   1.01e-03
  5.4347e+02   9.49e-04
  5.6578e+02   8.94e-04
  5.8901e+02   8.41e-04
  6.1319e+02   7.91e-04
  6.3836e+02   7.44e-04
  6.6457e+02   6.99e-04
  6.9185e+02   6.57e-04
  7.2025e+02   6.18e-04
  7.4982e+02   5.80e-04
  7.8061e+02   5.45e-04
  8.1265e+02   5.12e-04
  8.4601e+02   4.80e-04
  8.8075e+02   4.51e-04
  9.1690e+02   4.23e-04
  9.5455e+02   3.97e-04
  9.9373e+02   3.72e-04
  1.0345e+03   3.49e-04
  1.0770e+03   3.27e-04
  1.1212e+03   3.07e-04
  1.1672e+03   2.88e-04
  1.2152e+03   2.69e-04
  1.2650e+03   2.52e-04
  1.3170e+03   2.37e-04
  1.3711e+03   2.22e-04
  1.4273e+03   2.08e-04
  1.4859e+03   1.94e-04
  1.5469e+03   1.82e-04
  1.6104e+03   1.71e-04
  1.6766e+03   1.60e-04
  1.7454e+03   1.50e-04
  1.8170e+03   1.40e-04
  1.8916e+03   1.31e-04
  1.9693e+03   1.23e-04
  2.0501e+03   1.15e-04
  2.1343e+03   1.08e-04
  2.2219e+03   1.01e-04
  2.3131e+03   9.45e-05
  2.4081e+03   8.84e-05
  2.5070e+03   8.27e-05
  2.6099e+03   7.75e-05
  2.7170e+03   7.26e-05
  2.8286e+03   6.79e-05
  2.9447e+03   6.37e-05
  3.0656e+03   5.96e-05
  3.1914e+03   5.59e-05
  3.3225e+03   5.24e-05
  3.4589e+03   4.91e-05
  3.6008e+03   4.60e-05
  3.7487e+03   4.31e-05
  3.9026e+03   4.04e-05
  4.0628e+03   3.79e-05
  4.2296e+03   3.56e-05
  4.4032e+03   3.33e-05
  4.5840e+03   3.13e-05
  4.7722e+03   2.93e-05
  4.9681e+03   2.75e-05
  5.1720e+03   2.58e-05
  5.3844e+03   2.43e-05
  5.6054e+03   2.28e-05
  5.8355e+03   2.14e-05
  6.0751e+03   2.01e-05
  6.3245e+03   1.89e-05
  6.5841e+03   1.77e-05
  6.8544e+03   1.67e-05
  7.1358e+03   1.56e-05
  7.4288e+03   1.47e-05
  7.7338e+03   1.38e-05
  8.0513e+03   1.30e-05
  8.3818e+03   1.22e-05
  8.7259e+03   1.14e-05
  9.0841e+03   1.07e-05
  9.4571e+03   1.01e-05
  9.8453e+03   9.48e-06
  1.0249e+04   8.90e-06
  1.0670e+04   8.34e-06
  1.1108e+04   7.82e-06
  1.1564e+04   7.32e-06
  1.2039e+04   6.85e-06
  1.2533e+04   6.40e-06
  1.3048e+04   5.97e-06
  1.3584e+04   5.56e-06
  1.4141e+04   5.17e-06
  1.4722e+04   4.80e-06
  1.5326e+04   4.45e-06
  1.5955e+04   4.11e-06
  1.6610e+04   3.78e-06
  1.7292e+04   3.47e-06
  1.8002e+04   3.17e-06
  1.8741e+04   2.89e-06
  1.9511e+04   2.61e-06
  2.0312e+04   2.35e-06
  2.1145e+04   2.10e-06
  2.2013e+04   1.86e-06
  2.2917e+04   1.62e-06
  2.3858e+04   1.40e-06
  2.4837e+04   1.20e-06
  2.5857e+04   1.00e-06
  2.6919e+04   8.24e-07
  2.8024e+04   6.61e-07
  2.9174e+04   5.15e-07
  3.0372e+04   3.87e-07
  3.1619e+04   2.79e-07
  3.2917e+04   1.91e-07
  3.4268e+04   1.22e-07
  3.5675e+04   7.22e-08
  3.7140e+04   3.85e-08
  3.8664e+04   1.81e-08
  4.0252e+04   7.22e-09
  4.1904e+04   2.34e-09
  4.3624e+04   5.82e-10
  4.5415e+04   1.02e-10
  4.7280e+04   1.13e-11
  4.9221e+04   6.83e-13
  5.1241e+04   1.82e-14
  5.3345e+04   1.61e-16
  5.5535e+04   3.14e-19
  5.7815e+04   7.46e-23
  6.0188e+04   9.27e-28
  6.2659e+04   1.72e-34
  6.5232e+04   7.47e-44
  6.7910e+04   8.61e-47
  7.0698e+04   8.11e-47
  7.3600e+04   7.62e-47
  7.6621e+04   7.17e-47
  7.9767e+04   6.73e-47
  8.3042e+04   6.30e-47
  8.6451e+04   5.90e-47
  9.0000e+04   5.53e-47
