#  E [MeV]   Flux [# cm^{-2} s^{-1}  MeV^{-1}]
  3.0000e+04   3.79e-25
  3.1141e+04   3.64e-25
  3.2326e+04   3.49e-25
  3.3556e+04   3.35e-25
  3.4832e+04   3.21e-25
  3.6157e+04   3.08e-25
  3.7533e+04   2.95e-25
  3.8961e+04   2.83e-25
  4.0443e+04   2.72e-25
  4.1982e+04   2.60e-25
  4.3579e+04   2.50e-25
  4.5237e+04   2.39e-25
  4.6958e+04   2.29e-25
  4.8744e+04   2.20e-25
  5.0598e+04   2.11e-25
  5.2523e+04   2.02e-25
  5.4521e+04   1.93e-25
  5.6596e+04   1.85e-25
  5.8749e+04   1.78e-25
  6.0984e+04   1.70e-25
  6.3304e+04   1.63e-25
  6.5712e+04   1.56e-25
  6.8212e+04   1.49e-25
  7.0807e+04   1.43e-25
  7.3500e+04   1.37e-25
  7.6297e+04   1.31e-25
  7.9199e+04   1.26e-25
  8.2212e+04   1.20e-25
  8.5340e+04   1.15e-25
  8.8586e+04   1.10e-25
  9.1956e+04   1.05e-25
  9.5455e+04   1.01e-25
  9.9086e+04   9.62e-26
  1.0286e+05   9.19e-26
  1.0677e+05   8.79e-26
  1.1083e+05   8.40e-26
  1.1505e+05   8.02e-26
  1.1942e+05   7.67e-26
  1.2397e+05   7.32e-26
  1.2868e+05   6.99e-26
  1.3358e+05   6.68e-26
  1.3866e+05   6.37e-26
  1.4394e+05   6.08e-26
  1.4941e+05   5.80e-26
  1.5509e+05   5.54e-26
  1.6100e+05   5.28e-26
  1.6712e+05   5.03e-26
  1.7348e+05   4.80e-26
  1.8008e+05   4.57e-26
  1.8693e+05   4.35e-26
  1.9404e+05   4.14e-26
  2.0142e+05   3.94e-26
  2.0908e+05   3.75e-26
  2.1704e+05   3.57e-26
  2.2529e+05   3.40e-26
  2.3387e+05   3.23e-26
  2.4276e+05   3.07e-26
  2.5200e+05   2.92e-26
  2.6158e+05   2.77e-26
  2.7154e+05   2.63e-26
  2.8187e+05   2.50e-26
  2.9259e+05   2.37e-26
  3.0372e+05   2.25e-26
  3.1527e+05   2.13e-26
  3.2727e+05   2.02e-26
  3.3972e+05   1.91e-26
  3.5264e+05   1.81e-26
  3.6606e+05   1.71e-26
  3.7998e+05   1.62e-26
  3.9444e+05   1.53e-26
  4.0945e+05   1.45e-26
  4.2502e+05   1.37e-26
  4.4119e+05   1.29e-26
  4.5798e+05   1.22e-26
  4.7540e+05   1.15e-26
  4.9348e+05   1.08e-26
  5.1226e+05   1.02e-26
  5.3175e+05   9.63e-27
  5.5198e+05   9.07e-27
  5.7297e+05   8.53e-27
  5.9477e+05   8.03e-27
  6.1740e+05   7.55e-27
  6.4089e+05   7.10e-27
  6.6527e+05   6.67e-27
  6.9058e+05   6.26e-27
  7.1685e+05   5.88e-27
  7.4412e+05   5.51e-27
  7.7243e+05   5.17e-27
  8.0181e+05   4.85e-27
  8.3232e+05   4.54e-27
  8.6398e+05   4.25e-27
  8.9685e+05   3.98e-27
  9.3097e+05   3.73e-27
  9.6638e+05   3.49e-27
  1.0031e+06   3.26e-27
  1.0413e+06   3.05e-27
  1.0809e+06   2.85e-27
  1.1220e+06   2.66e-27
  1.1647e+06   2.48e-27
  1.2090e+06   2.32e-27
  1.2550e+06   2.16e-27
  1.3028e+06   2.02e-27
  1.3523e+06   1.88e-27
  1.4038e+06   1.75e-27
  1.4572e+06   1.63e-27
  1.5126e+06   1.51e-27
  1.5702e+06   1.41e-27
  1.6299e+06   1.31e-27
  1.6919e+06   1.22e-27
  1.7563e+06   1.13e-27
  1.8231e+06   1.05e-27
  1.8925e+06   9.72e-28
  1.9645e+06   9.00e-28
  2.0392e+06   8.35e-28
  2.1168e+06   7.73e-28
  2.1973e+06   7.15e-28
  2.2809e+06   6.62e-28
  2.3677e+06   6.12e-28
  2.4577e+06   5.65e-28
  2.5512e+06   5.22e-28
  2.6483e+06   4.82e-28
  2.7490e+06   4.44e-28
  2.8536e+06   4.09e-28
  2.9622e+06   3.77e-28
  3.0749e+06   3.46e-28
  3.1918e+06   3.18e-28
  3.3133e+06   2.93e-28
  3.4393e+06   2.69e-28
  3.5702e+06   2.46e-28
  3.7060e+06   2.26e-28
  3.8470e+06   2.07e-28
  3.9933e+06   1.89e-28
  4.1452e+06   1.73e-28
  4.3029e+06   1.58e-28
  4.4666e+06   1.44e-28
  4.6366e+06   1.32e-28
  4.8129e+06   1.20e-28
  4.9960e+06   1.09e-28
  5.1861e+06   9.96e-29
  5.3834e+06   9.05e-29
  5.5882e+06   8.20e-29
  5.8008e+06   7.45e-29
  6.0215e+06   6.75e-29
  6.2506e+06   6.10e-29
  6.4883e+06   5.53e-29
  6.7352e+06   4.99e-29
  6.9914e+06   4.49e-29
  7.2574e+06   4.06e-29
  7.5335e+06   3.66e-29
  7.8201e+06   3.28e-29
  8.1176e+06   2.95e-29
  8.4264e+06   2.65e-29
  8.7470e+06   2.37e-29
  9.0797e+06   2.12e-29
  9.4251e+06   1.90e-29
  9.7837e+06   1.70e-29
  1.0156e+07   1.51e-29
  1.0542e+07   1.35e-29
  1.0943e+07   1.20e-29
  1.1360e+07   1.06e-29
  1.1792e+07   9.46e-30
  1.2240e+07   8.36e-30
  1.2706e+07   7.39e-30
  1.3189e+07   6.55e-30
  1.3691e+07   5.77e-30
  1.4212e+07   5.07e-30
  1.4753e+07   4.48e-30
  1.5314e+07   3.93e-30
  1.5897e+07   3.43e-30
  1.6501e+07   3.02e-30
  1.7129e+07   2.63e-30
  1.7781e+07   2.28e-30
  1.8457e+07   1.99e-30
  1.9159e+07   1.72e-30
  1.9888e+07   1.48e-30
  2.0645e+07   1.28e-30
  2.1430e+07   1.10e-30
  2.2245e+07   9.29e-31
  2.3092e+07   7.90e-31
  2.3970e+07   6.63e-31
  2.4882e+07   5.47e-31
  2.5829e+07   4.51e-31
  2.6811e+07   3.64e-31
  2.7831e+07   2.87e-31
  2.8890e+07   2.22e-31
  2.9989e+07   1.67e-31
  3.1130e+07   1.20e-31
  3.2314e+07   8.41e-32
  3.3544e+07   5.56e-32
  3.4820e+07   3.40e-32
  3.6144e+07   1.95e-32
  3.7519e+07   1.00e-32
  3.8947e+07   4.45e-33
  4.0428e+07   1.74e-33
  4.1966e+07   5.56e-34
  4.3563e+07   1.31e-34
  4.5220e+07   2.43e-35
  4.6941e+07   2.95e-36
  4.8726e+07   1.82e-37
  5.0580e+07   5.09e-39
