#  E [MeV]   Flux [# cm^{-2} s^{-1}  MeV^{-1}]
  3.0000e+04   7.56e-20
  3.0854e+04   7.31e-20
  3.1733e+04   7.06e-20
  3.2636e+04   6.83e-20
  3.3566e+04   6.60e-20
  3.4521e+04   6.37e-20
  3.5504e+04   6.15e-20
  3.6515e+04   5.94e-20
  3.7555e+04   5.74e-20
  3.8625e+04   5.54e-20
  3.9724e+04   5.35e-20
  4.0855e+04   5.16e-20
  4.2019e+04   4.98e-20
  4.3215e+04   4.80e-20
  4.4446e+04   4.63e-20
  4.5711e+04   4.46e-20
  4.7013e+04   4.30e-20
  4.8352e+04   4.14e-20
  4.9728e+04   3.99e-20
  5.1144e+04   3.84e-20
  5.2601e+04   3.70e-20
  5.4099e+04   3.56e-20
  5.5639e+04   3.43e-20
  5.7223e+04   3.30e-20
  5.8853e+04   3.17e-20
  6.0528e+04   3.05e-20
  6.2252e+04   2.93e-20
  6.4025e+04   2.82e-20
  6.5848e+04   2.71e-20
  6.7723e+04   2.60e-20
  6.9651e+04   2.50e-20
  7.1634e+04   2.40e-20
  7.3674e+04   2.30e-20
  7.5772e+04   2.21e-20
  7.7929e+04   2.12e-20
  8.0148e+04   2.04e-20
  8.2431e+04   1.95e-20
  8.4778e+04   1.87e-20
  8.7192e+04   1.79e-20
  8.9674e+04   1.72e-20
  9.2228e+04   1.65e-20
  9.4854e+04   1.58e-20
  9.7555e+04   1.51e-20
  1.0033e+05   1.44e-20
  1.0319e+05   1.38e-20
  1.0613e+05   1.32e-20
  1.0915e+05   1.26e-20
  1.1226e+05   1.21e-20
  1.1545e+05   1.15e-20
  1.1874e+05   1.10e-20
  1.2212e+05   1.05e-20
  1.2560e+05   1.01e-20
  1.2918e+05   9.59e-21
  1.3286e+05   9.15e-21
  1.3664e+05   8.73e-21
  1.4053e+05   8.32e-21
  1.4453e+05   7.93e-21
  1.4865e+05   7.56e-21
  1.5288e+05   7.20e-21
  1.5723e+05   6.85e-21
  1.6171e+05   6.52e-21
  1.6631e+05   6.20e-21
  1.7105e+05   5.90e-21
  1.7592e+05   5.60e-21
  1.8093e+05   5.32e-21
  1.8608e+05   5.05e-21
  1.9138e+05   4.79e-21
  1.9683e+05   4.54e-21
  2.0243e+05   4.31e-21
  2.0820e+05   4.08e-21
  2.1413e+05   3.86e-21
  2.2022e+05   3.66e-21
  2.2649e+05   3.46e-21
  2.3294e+05   3.27e-21
  2.3958e+05   3.09e-21
  2.4640e+05   2.92e-21
  2.5341e+05   2.75e-21
  2.6063e+05   2.59e-21
  2.6805e+05   2.45e-21
  2.7568e+05   2.30e-21
  2.8353e+05   2.17e-21
  2.9161e+05   2.04e-21
  2.9991e+05   1.92e-21
  3.0845e+05   1.80e-21
  3.1723e+05   1.69e-21
  3.2627e+05   1.59e-21
  3.3556e+05   1.49e-21
  3.4511e+05   1.40e-21
  3.5494e+05   1.31e-21
  3.6504e+05   1.22e-21
  3.7544e+05   1.14e-21
  3.8613e+05   1.07e-21
  3.9712e+05   9.96e-22
  4.0843e+05   9.29e-22
  4.2006e+05   8.65e-22
  4.3202e+05   8.06e-22
  4.4432e+05   7.51e-22
  4.5698e+05   6.98e-22
  4.6999e+05   6.48e-22
  4.8337e+05   6.02e-22
  4.9713e+05   5.59e-22
  5.1129e+05   5.18e-22
  5.2585e+05   4.79e-22
  5.4082e+05   4.44e-22
  5.5622e+05   4.11e-22
  5.7206e+05   3.80e-22
  5.8835e+05   3.51e-22
  6.0510e+05   3.24e-22
  6.2233e+05   2.99e-22
  6.4005e+05   2.76e-22
  6.5828e+05   2.54e-22
  6.7702e+05   2.34e-22
  6.9630e+05   2.16e-22
  7.1613e+05   1.99e-22
  7.3652e+05   1.82e-22
  7.5749e+05   1.68e-22
  7.7906e+05   1.54e-22
  8.0124e+05   1.42e-22
  8.2406e+05   1.30e-22
  8.4752e+05   1.19e-22
  8.7165e+05   1.09e-22
  8.9647e+05   1.00e-22
  9.2200e+05   9.18e-23
  9.4825e+05   8.41e-23
  9.7526e+05   7.72e-23
  1.0030e+06   7.07e-23
  1.0316e+06   6.46e-23
  1.0610e+06   5.91e-23
  1.0912e+06   5.42e-23
  1.1222e+06   4.95e-23
  1.1542e+06   4.52e-23
  1.1871e+06   4.13e-23
  1.2209e+06   3.79e-23
  1.2556e+06   3.46e-23
  1.2914e+06   3.16e-23
  1.3281e+06   2.88e-23
  1.3660e+06   2.64e-23
  1.4049e+06   2.41e-23
  1.4449e+06   2.20e-23
  1.4860e+06   2.00e-23
  1.5283e+06   1.83e-23
  1.5718e+06   1.67e-23
  1.6166e+06   1.52e-23
  1.6626e+06   1.38e-23
  1.7100e+06   1.27e-23
  1.7587e+06   1.16e-23
  1.8087e+06   1.05e-23
  1.8602e+06   9.56e-24
  1.9132e+06   8.75e-24
  1.9677e+06   7.99e-24
  2.0237e+06   7.27e-24
  2.0813e+06   6.60e-24
  2.1406e+06   6.04e-24
  2.2016e+06   5.51e-24
  2.2642e+06   5.02e-24
  2.3287e+06   4.56e-24
  2.3950e+06   4.17e-24
  2.4632e+06   3.81e-24
  2.5334e+06   3.48e-24
  2.6055e+06   3.16e-24
  2.6797e+06   2.89e-24
  2.7560e+06   2.65e-24
  2.8345e+06   2.42e-24
  2.9152e+06   2.20e-24
  2.9982e+06   2.02e-24
  3.0836e+06   1.86e-24
  3.1714e+06   1.71e-24
  3.2617e+06   1.57e-24
  3.3545e+06   1.45e-24
  3.4501e+06   1.35e-24
  3.5483e+06   1.25e-24
  3.6493e+06   1.15e-24
  3.7532e+06   1.07e-24
  3.8601e+06   1.01e-24
  3.9700e+06   9.41e-25
  4.0831e+06   8.80e-25
  4.1993e+06   8.26e-25
  4.3189e+06   7.82e-25
  4.4419e+06   7.40e-25
  4.5684e+06   7.00e-25
  4.6985e+06   6.64e-25
  4.8322e+06   6.42e-25
  4.9698e+06   6.19e-25
  5.1114e+06   5.96e-25
  5.2569e+06   5.76e-25
  5.4066e+06   5.70e-25
  5.5605e+06   5.62e-25
  5.7189e+06   5.52e-25
  5.8817e+06   5.42e-25
  6.0492e+06   5.62e-25
  6.2214e+06   5.78e-25
  6.3986e+06   5.88e-25
  6.5808e+06   5.93e-25
  6.7682e+06   6.65e-25
  6.9609e+06   7.27e-25
  7.1591e+06   7.76e-25
  7.3630e+06   8.12e-25
  7.5726e+06   7.26e-25
  7.7882e+06   6.25e-25
  8.0100e+06   5.34e-25
