#  E [GeV]   # per interaction  [GeV^{-1}]
  3.0000e+01   5.37e-01
  3.1123e+01   5.15e-01
  3.2288e+01   4.95e-01
  3.3497e+01   4.75e-01
  3.4751e+01   4.56e-01
  3.6051e+01   4.37e-01
  3.7401e+01   4.19e-01
  3.8801e+01   4.02e-01
  4.0253e+01   3.86e-01
  4.1760e+01   3.70e-01
  4.3324e+01   3.55e-01
  4.4945e+01   3.41e-01
  4.6628e+01   3.27e-01
  4.8373e+01   3.13e-01
  5.0184e+01   3.00e-01
  5.2063e+01   2.88e-01
  5.4011e+01   2.76e-01
  5.6033e+01   2.64e-01
  5.8131e+01   2.53e-01
  6.0307e+01   2.42e-01
  6.2564e+01   2.32e-01
  6.4906e+01   2.22e-01
  6.7336e+01   2.13e-01
  6.9857e+01   2.04e-01
  7.2472e+01   1.95e-01
  7.5184e+01   1.87e-01
  7.7999e+01   1.79e-01
  8.0919e+01   1.71e-01
  8.3948e+01   1.63e-01
  8.7090e+01   1.56e-01
  9.0350e+01   1.49e-01
  9.3732e+01   1.43e-01
  9.7241e+01   1.36e-01
  1.0088e+02   1.30e-01
  1.0466e+02   1.24e-01
  1.0858e+02   1.19e-01
  1.1264e+02   1.13e-01
  1.1686e+02   1.08e-01
  1.2123e+02   1.03e-01
  1.2577e+02   9.83e-02
  1.3048e+02   9.37e-02
  1.3536e+02   8.93e-02
  1.4043e+02   8.50e-02
  1.4568e+02   8.09e-02
  1.5114e+02   7.70e-02
  1.5680e+02   7.32e-02
  1.6266e+02   6.96e-02
  1.6875e+02   6.61e-02
  1.7507e+02   6.27e-02
  1.8162e+02   5.95e-02
  1.8842e+02   5.65e-02
  1.9548e+02   5.35e-02
  2.0279e+02   5.07e-02
  2.1039e+02   4.80e-02
  2.1826e+02   4.54e-02
  2.2643e+02   4.29e-02
  2.3491e+02   4.06e-02
  2.4370e+02   3.83e-02
  2.5282e+02   3.62e-02
  2.6229e+02   3.41e-02
  2.7211e+02   3.21e-02
  2.8229e+02   3.02e-02
  2.9286e+02   2.84e-02
  3.0382e+02   2.66e-02
  3.1519e+02   2.50e-02
  3.2699e+02   2.34e-02
  3.3923e+02   2.19e-02
  3.5193e+02   2.05e-02
  3.6511e+02   1.91e-02
  3.7877e+02   1.79e-02
  3.9295e+02   1.67e-02
  4.0766e+02   1.55e-02
  4.2292e+02   1.44e-02
  4.3875e+02   1.34e-02
  4.5518e+02   1.25e-02
  4.7222e+02   1.16e-02
  4.8989e+02   1.07e-02
  5.0823e+02   9.94e-03
  5.2726e+02   9.19e-03
  5.4699e+02   8.50e-03
  5.6747e+02   7.84e-03
  5.8871e+02   7.24e-03
  6.1075e+02   6.67e-03
  6.3361e+02   6.15e-03
  6.5733e+02   5.66e-03
  6.8194e+02   5.21e-03
  7.0746e+02   4.79e-03
  7.3395e+02   4.40e-03
  7.6142e+02   4.04e-03
  7.8992e+02   3.71e-03
  8.1949e+02   3.41e-03
  8.5017e+02   3.13e-03
  8.8199e+02   2.87e-03
  9.1501e+02   2.63e-03
  9.4926e+02   2.41e-03
  9.8479e+02   2.21e-03
  1.0217e+03   2.03e-03
  1.0599e+03   1.86e-03
  1.0996e+03   1.70e-03
  1.1407e+03   1.56e-03
  1.1834e+03   1.43e-03
  1.2277e+03   1.31e-03
  1.2737e+03   1.20e-03
  1.3214e+03   1.10e-03
  1.3708e+03   1.01e-03
  1.4222e+03   9.26e-04
  1.4754e+03   8.49e-04
  1.5306e+03   7.78e-04
  1.5879e+03   7.14e-04
  1.6474e+03   6.54e-04
  1.7090e+03   6.00e-04
  1.7730e+03   5.50e-04
  1.8394e+03   5.03e-04
  1.9082e+03   4.61e-04
  1.9797e+03   4.23e-04
  2.0538e+03   3.87e-04
  2.1306e+03   3.54e-04
  2.2104e+03   3.24e-04
  2.2931e+03   2.96e-04
  2.3790e+03   2.70e-04
  2.4680e+03   2.47e-04
  2.5604e+03   2.25e-04
  2.6563e+03   2.05e-04
  2.7557e+03   1.87e-04
  2.8589e+03   1.70e-04
  2.9659e+03   1.55e-04
  3.0769e+03   1.40e-04
  3.1921e+03   1.27e-04
  3.3116e+03   1.15e-04
  3.4355e+03   1.04e-04
  3.5641e+03   9.43e-05
  3.6976e+03   8.48e-05
  3.8360e+03   7.65e-05
  3.9796e+03   6.88e-05
  4.1285e+03   6.15e-05
  4.2831e+03   5.51e-05
  4.4434e+03   4.92e-05
  4.6097e+03   4.38e-05
  4.7823e+03   3.89e-05
  4.9613e+03   3.45e-05
  5.1470e+03   3.05e-05
  5.3397e+03   2.68e-05
  5.5396e+03   2.36e-05
  5.7470e+03   2.06e-05
  5.9621e+03   1.80e-05
  6.1853e+03   1.57e-05
  6.4168e+03   1.35e-05
  6.6570e+03   1.17e-05
  6.9062e+03   1.00e-05
  7.1647e+03   8.55e-06
  7.4329e+03   7.25e-06
  7.7112e+03   6.14e-06
  7.9998e+03   5.16e-06
  8.2993e+03   4.28e-06
  8.6100e+03   3.57e-06
  8.9323e+03   2.93e-06
  9.2666e+03   2.38e-06
  9.6135e+03   1.94e-06
  9.9734e+03   1.55e-06
  1.0347e+04   1.23e-06
  1.0734e+04   9.65e-07
  1.1136e+04   7.50e-07
  1.1553e+04   5.72e-07
  1.1985e+04   4.32e-07
  1.2434e+04   3.22e-07
  1.2899e+04   2.34e-07
  1.3382e+04   1.68e-07
  1.3883e+04   1.18e-07
  1.4403e+04   8.07e-08
  1.4942e+04   5.37e-08
  1.5501e+04   3.49e-08
  1.6081e+04   2.18e-08
  1.6683e+04   1.31e-08
  1.7308e+04   7.66e-09
  1.7956e+04   4.23e-09
  1.8628e+04   2.21e-09
  1.9325e+04   1.10e-09
  2.0049e+04   5.04e-10
  2.0799e+04   2.12e-10
  2.1578e+04   8.26e-11
  2.2386e+04   2.88e-11
  2.3224e+04   8.79e-12
  2.4093e+04   2.34e-12
  2.4995e+04   5.26e-13
  2.5930e+04   9.65e-14
  2.6901e+04   1.42e-14
  2.7908e+04   1.60e-15
  2.8953e+04   1.29e-16
  3.0037e+04   7.15e-18
  3.1161e+04   2.53e-19
  3.2327e+04   5.08e-21
  3.3537e+04   5.40e-23
  3.4793e+04   2.64e-25
  3.6095e+04   4.72e-28
  3.7446e+04   2.68e-31
  3.8848e+04   3.88e-35
  4.0302e+04   8.24e-40
  4.1811e+04   1.71e-45
  4.3376e+04   1.05e-45
  4.5000e+04   1.25e-45
