#  E [MeV]   Flux [# cm^{-2} s^{-1}  MeV^{-1}]
  3.0000e+04   1.07e-20
  3.1123e+04   1.02e-20
  3.2288e+04   9.82e-21
  3.3497e+04   9.42e-21
  3.4751e+04   9.04e-21
  3.6051e+04   8.67e-21
  3.7401e+04   8.32e-21
  3.8801e+04   7.98e-21
  4.0253e+04   7.66e-21
  4.1760e+04   7.35e-21
  4.3324e+04   7.05e-21
  4.4945e+04   6.76e-21
  4.6628e+04   6.48e-21
  4.8373e+04   6.21e-21
  5.0184e+04   5.95e-21
  5.2063e+04   5.71e-21
  5.4011e+04   5.47e-21
  5.6033e+04   5.24e-21
  5.8131e+04   5.02e-21
  6.0307e+04   4.81e-21
  6.2564e+04   4.61e-21
  6.4906e+04   4.41e-21
  6.7336e+04   4.22e-21
  6.9857e+04   4.04e-21
  7.2472e+04   3.87e-21
  7.5184e+04   3.70e-21
  7.7999e+04   3.54e-21
  8.0919e+04   3.39e-21
  8.3948e+04   3.24e-21
  8.7090e+04   3.10e-21
  9.0350e+04   2.96e-21
  9.3732e+04   2.83e-21
  9.7241e+04   2.71e-21
  1.0088e+05   2.58e-21
  1.0466e+05   2.47e-21
  1.0858e+05   2.36e-21
  1.1264e+05   2.25e-21
  1.1686e+05   2.15e-21
  1.2123e+05   2.05e-21
  1.2577e+05   1.95e-21
  1.3048e+05   1.86e-21
  1.3536e+05   1.77e-21
  1.4043e+05   1.69e-21
  1.4568e+05   1.61e-21
  1.5114e+05   1.53e-21
  1.5680e+05   1.45e-21
  1.6266e+05   1.38e-21
  1.6875e+05   1.31e-21
  1.7507e+05   1.24e-21
  1.8162e+05   1.18e-21
  1.8842e+05   1.12e-21
  1.9548e+05   1.06e-21
  2.0279e+05   1.01e-21
  2.1039e+05   9.52e-22
  2.1826e+05   9.01e-22
  2.2643e+05   8.52e-22
  2.3491e+05   8.05e-22
  2.4370e+05   7.60e-22
  2.5282e+05   7.17e-22
  2.6229e+05   6.77e-22
  2.7211e+05   6.37e-22
  2.8229e+05   5.99e-22
  2.9286e+05   5.63e-22
  3.0382e+05   5.28e-22
  3.1519e+05   4.96e-22
  3.2699e+05   4.64e-22
  3.3923e+05   4.35e-22
  3.5193e+05   4.07e-22
  3.6511e+05   3.80e-22
  3.7877e+05   3.55e-22
  3.9295e+05   3.31e-22
  4.0766e+05   3.08e-22
  4.2292e+05   2.87e-22
  4.3875e+05   2.67e-22
  4.5518e+05   2.48e-22
  4.7222e+05   2.30e-22
  4.8989e+05   2.13e-22
  5.0823e+05   1.97e-22
  5.2726e+05   1.82e-22
  5.4699e+05   1.69e-22
  5.6747e+05   1.56e-22
  5.8871e+05   1.44e-22
  6.1075e+05   1.32e-22
  6.3361e+05   1.22e-22
  6.5733e+05   1.12e-22
  6.8194e+05   1.03e-22
  7.0746e+05   9.50e-23
  7.3395e+05   8.73e-23
  7.6142e+05   8.02e-23
  7.8992e+05   7.37e-23
  8.1949e+05   6.76e-23
  8.5017e+05   6.20e-23
  8.8199e+05   5.69e-23
  9.1501e+05   5.22e-23
  9.4926e+05   4.79e-23
  9.8479e+05   4.39e-23
  1.0217e+06   4.03e-23
  1.0599e+06   3.69e-23
  1.0996e+06   3.38e-23
  1.1407e+06   3.10e-23
  1.1834e+06   2.84e-23
  1.2277e+06   2.60e-23
  1.2737e+06   2.39e-23
  1.3214e+06   2.19e-23
  1.3708e+06   2.01e-23
  1.4222e+06   1.84e-23
  1.4754e+06   1.68e-23
  1.5306e+06   1.54e-23
  1.5879e+06   1.42e-23
  1.6474e+06   1.30e-23
  1.7090e+06   1.19e-23
  1.7730e+06   1.09e-23
  1.8394e+06   9.98e-24
  1.9082e+06   9.15e-24
  1.9797e+06   8.39e-24
  2.0538e+06   7.67e-24
  2.1306e+06   7.02e-24
  2.2104e+06   6.43e-24
  2.2931e+06   5.87e-24
  2.3790e+06   5.36e-24
  2.4680e+06   4.90e-24
  2.5604e+06   4.47e-24
  2.6563e+06   4.07e-24
  2.7557e+06   3.71e-24
  2.8589e+06   3.38e-24
  2.9659e+06   3.07e-24
  3.0769e+06   2.79e-24
  3.1921e+06   2.53e-24
  3.3116e+06   2.29e-24
  3.4355e+06   2.07e-24
  3.5641e+06   1.87e-24
  3.6976e+06   1.68e-24
  3.8360e+06   1.52e-24
  3.9796e+06   1.36e-24
  4.1285e+06   1.22e-24
  4.2831e+06   1.09e-24
  4.4434e+06   9.77e-25
  4.6097e+06   8.69e-25
  4.7823e+06   7.72e-25
  4.9613e+06   6.85e-25
  5.1470e+06   6.04e-25
  5.3397e+06   5.32e-25
  5.5396e+06   4.68e-25
  5.7470e+06   4.09e-25
  5.9621e+06   3.57e-25
  6.1853e+06   3.11e-25
  6.4168e+06   2.69e-25
  6.6570e+06   2.31e-25
  6.9062e+06   1.99e-25
  7.1647e+06   1.70e-25
  7.4329e+06   1.44e-25
  7.7112e+06   1.22e-25
  7.9998e+06   1.02e-25
  8.2993e+06   8.50e-26
  8.6100e+06   7.07e-26
  8.9323e+06   5.82e-26
  9.2666e+06   4.73e-26
  9.6135e+06   3.84e-26
  9.9734e+06   3.08e-26
  1.0347e+07   2.44e-26
  1.0734e+07   1.92e-26
  1.1136e+07   1.49e-26
  1.1553e+07   1.14e-26
  1.1985e+07   8.57e-27
  1.2434e+07   6.39e-27
  1.2899e+07   4.65e-27
  1.3382e+07   3.33e-27
  1.3883e+07   2.34e-27
  1.4403e+07   1.60e-27
  1.4942e+07   1.07e-27
  1.5501e+07   6.92e-28
  1.6081e+07   4.33e-28
  1.6683e+07   2.61e-28
  1.7308e+07   1.52e-28
  1.7956e+07   8.40e-29
  1.8628e+07   4.38e-29
  1.9325e+07   2.17e-29
  2.0049e+07   9.99e-30
  2.0799e+07   4.22e-30
  2.1578e+07   1.64e-30
  2.2386e+07   5.71e-31
  2.3224e+07   1.74e-31
  2.4093e+07   4.65e-32
  2.4995e+07   1.04e-32
  2.5930e+07   1.92e-33
  2.6901e+07   2.82e-34
  2.7908e+07   3.17e-35
  2.8953e+07   2.55e-36
  3.0037e+07   1.42e-37
  3.1161e+07   5.02e-39
  3.2327e+07   1.01e-40
  3.3537e+07   1.07e-42
  3.4793e+07   5.24e-45
  3.6095e+07   9.37e-48
  3.7446e+07   5.31e-51
  3.8848e+07   7.70e-55
  4.0302e+07   1.64e-59
  4.1811e+07   3.40e-65
  4.3376e+07   2.08e-65
  4.5000e+07   2.47e-65
