#  E [MeV]   Flux [# cm^{-2} s^{-1}  MeV^{-1}]
  3.0000e+04   1.40e-25
  3.1232e+04   1.34e-25
  3.2514e+04   1.28e-25
  3.3849e+04   1.22e-25
  3.5238e+04   1.17e-25
  3.6685e+04   1.12e-25
  3.8191e+04   1.07e-25
  3.9759e+04   1.02e-25
  4.1391e+04   9.78e-26
  4.3090e+04   9.35e-26
  4.4859e+04   8.94e-26
  4.6701e+04   8.55e-26
  4.8618e+04   8.17e-26
  5.0614e+04   7.81e-26
  5.2692e+04   7.47e-26
  5.4855e+04   7.14e-26
  5.7107e+04   6.82e-26
  5.9451e+04   6.52e-26
  6.1892e+04   6.23e-26
  6.4433e+04   5.95e-26
  6.7078e+04   5.68e-26
  6.9832e+04   5.43e-26
  7.2699e+04   5.18e-26
  7.5683e+04   4.95e-26
  7.8790e+04   4.73e-26
  8.2025e+04   4.51e-26
  8.5392e+04   4.31e-26
  8.8898e+04   4.11e-26
  9.2547e+04   3.92e-26
  9.6347e+04   3.74e-26
  1.0030e+05   3.57e-26
  1.0442e+05   3.40e-26
  1.0871e+05   3.25e-26
  1.1317e+05   3.09e-26
  1.1782e+05   2.95e-26
  1.2265e+05   2.81e-26
  1.2769e+05   2.68e-26
  1.3293e+05   2.55e-26
  1.3839e+05   2.43e-26
  1.4407e+05   2.31e-26
  1.4998e+05   2.20e-26
  1.5614e+05   2.09e-26
  1.6255e+05   1.99e-26
  1.6922e+05   1.89e-26
  1.7617e+05   1.79e-26
  1.8340e+05   1.70e-26
  1.9093e+05   1.62e-26
  1.9877e+05   1.53e-26
  2.0693e+05   1.45e-26
  2.1543e+05   1.38e-26
  2.2427e+05   1.30e-26
  2.3348e+05   1.23e-26
  2.4306e+05   1.16e-26
  2.5304e+05   1.10e-26
  2.6343e+05   1.04e-26
  2.7424e+05   9.80e-27
  2.8550e+05   9.23e-27
  2.9722e+05   8.69e-27
  3.0942e+05   8.18e-27
  3.2213e+05   7.69e-27
  3.3535e+05   7.22e-27
  3.4912e+05   6.77e-27
  3.6345e+05   6.34e-27
  3.7837e+05   5.94e-27
  3.9390e+05   5.55e-27
  4.1008e+05   5.19e-27
  4.2691e+05   4.84e-27
  4.4444e+05   4.51e-27
  4.6268e+05   4.20e-27
  4.8168e+05   3.91e-27
  5.0145e+05   3.63e-27
  5.2204e+05   3.38e-27
  5.4347e+05   3.13e-27
  5.6578e+05   2.90e-27
  5.8901e+05   2.69e-27
  6.1319e+05   2.48e-27
  6.3836e+05   2.30e-27
  6.6457e+05   2.12e-27
  6.9185e+05   1.96e-27
  7.2025e+05   1.80e-27
  7.4982e+05   1.66e-27
  7.8061e+05   1.53e-27
  8.1265e+05   1.41e-27
  8.4601e+05   1.30e-27
  8.8075e+05   1.19e-27
  9.1690e+05   1.10e-27
  9.5455e+05   1.01e-27
  9.9373e+05   9.29e-28
  1.0345e+06   8.53e-28
  1.0770e+06   7.84e-28
  1.1212e+06   7.20e-28
  1.1672e+06   6.62e-28
  1.2152e+06   6.08e-28
  1.2650e+06   5.58e-28
  1.3170e+06   5.13e-28
  1.3711e+06   4.71e-28
  1.4273e+06   4.33e-28
  1.4859e+06   3.97e-28
  1.5469e+06   3.65e-28
  1.6104e+06   3.36e-28
  1.6766e+06   3.08e-28
  1.7454e+06   2.83e-28
  1.8170e+06   2.60e-28
  1.8916e+06   2.38e-28
  1.9693e+06   2.19e-28
  2.0501e+06   2.01e-28
  2.1343e+06   1.84e-28
  2.2219e+06   1.69e-28
  2.3131e+06   1.54e-28
  2.4081e+06   1.41e-28
  2.5070e+06   1.29e-28
  2.6099e+06   1.18e-28
  2.7170e+06   1.08e-28
  2.8286e+06   9.82e-29
  2.9447e+06   8.93e-29
  3.0656e+06   8.13e-29
  3.1914e+06   7.38e-29
  3.3225e+06   6.69e-29
  3.4589e+06   6.06e-29
  3.6008e+06   5.48e-29
  3.7487e+06   4.94e-29
  3.9026e+06   4.46e-29
  4.0628e+06   4.01e-29
  4.2296e+06   3.59e-29
  4.4032e+06   3.22e-29
  4.5840e+06   2.87e-29
  4.7722e+06   2.55e-29
  4.9681e+06   2.27e-29
  5.1720e+06   2.01e-29
  5.3844e+06   1.77e-29
  5.6054e+06   1.56e-29
  5.8355e+06   1.36e-29
  6.0751e+06   1.19e-29
  6.3245e+06   1.03e-29
  6.5841e+06   8.93e-30
  6.8544e+06   7.69e-30
  7.1358e+06   6.59e-30
  7.4288e+06   5.60e-30
  7.7338e+06   4.75e-30
  8.0513e+06   4.00e-30
  8.3818e+06   3.33e-30
  8.7259e+06   2.77e-30
  9.0841e+06   2.28e-30
  9.4571e+06   1.85e-30
  9.8453e+06   1.50e-30
  1.0249e+07   1.19e-30
  1.0670e+07   9.40e-31
  1.1108e+07   7.34e-31
  1.1564e+07   5.63e-31
  1.2039e+07   4.25e-31
  1.2533e+07   3.17e-31
  1.3048e+07   2.30e-31
  1.3584e+07   1.64e-31
  1.4141e+07   1.14e-31
  1.4722e+07   7.72e-32
  1.5326e+07   5.08e-32
  1.5955e+07   3.23e-32
  1.6610e+07   1.96e-32
  1.7292e+07   1.15e-32
  1.8002e+07   6.37e-33
  1.8741e+07   3.31e-33
  1.9511e+07   1.63e-33
  2.0312e+07   7.37e-34
  2.1145e+07   3.03e-34
  2.2013e+07   1.14e-34
  2.2917e+07   3.78e-35
  2.3858e+07   1.08e-35
  2.4837e+07   2.64e-36
  2.5857e+07   5.25e-37
  2.6919e+07   8.23e-38
  2.8024e+07   9.83e-39
  2.9174e+07   8.29e-40
  3.0372e+07   4.64e-41
  3.1619e+07   1.59e-42
  3.2917e+07   2.92e-44
  3.4268e+07   2.54e-46
  3.5675e+07   8.65e-49
  3.7140e+07   9.04e-52
  3.8664e+07   2.19e-55
  4.0252e+07   8.13e-60
  4.1904e+07   2.71e-65
  4.3624e+07   8.01e-72
  4.5415e+07   6.83e-72
  4.7280e+07   5.74e-72
  4.9221e+07   4.97e-72
  5.1241e+07   4.25e-72
  5.3345e+07   3.60e-72
  5.5535e+07   3.14e-72
  5.7815e+07   2.70e-72
  6.0188e+07   2.32e-72
  6.2659e+07   2.03e-72
  6.5232e+07   1.76e-72
  6.7910e+07   1.54e-72
  7.0698e+07   1.37e-72
  7.3600e+07   1.21e-72
  7.6621e+07   1.08e-72
  7.9767e+07   9.77e-73
  8.3042e+07   8.76e-73
  8.6451e+07   7.97e-73
  9.0000e+07   7.28e-73
