#  E [MeV]   Flux [# cm^{-2} s^{-1}  MeV^{-1}]
  3.0000e+04   3.81e-25
  3.1141e+04   3.64e-25
  3.2326e+04   3.48e-25
  3.3556e+04   3.33e-25
  3.4832e+04   3.18e-25
  3.6157e+04   3.04e-25
  3.7533e+04   2.90e-25
  3.8961e+04   2.77e-25
  4.0443e+04   2.65e-25
  4.1982e+04   2.53e-25
  4.3579e+04   2.41e-25
  4.5237e+04   2.30e-25
  4.6958e+04   2.20e-25
  4.8744e+04   2.10e-25
  5.0598e+04   2.00e-25
  5.2523e+04   1.91e-25
  5.4521e+04   1.82e-25
  5.6596e+04   1.74e-25
  5.8749e+04   1.65e-25
  6.0984e+04   1.58e-25
  6.3304e+04   1.50e-25
  6.5712e+04   1.43e-25
  6.8212e+04   1.36e-25
  7.0807e+04   1.30e-25
  7.3500e+04   1.24e-25
  7.6297e+04   1.18e-25
  7.9199e+04   1.12e-25
  8.2212e+04   1.07e-25
  8.5340e+04   1.01e-25
  8.8586e+04   9.64e-26
  9.1956e+04   9.17e-26
  9.5455e+04   8.72e-26
  9.9086e+04   8.28e-26
  1.0286e+05   7.87e-26
  1.0677e+05   7.48e-26
  1.1083e+05   7.10e-26
  1.1505e+05   6.74e-26
  1.1942e+05   6.40e-26
  1.2397e+05   6.07e-26
  1.2868e+05   5.76e-26
  1.3358e+05   5.46e-26
  1.3866e+05   5.18e-26
  1.4394e+05   4.91e-26
  1.4941e+05   4.65e-26
  1.5509e+05   4.40e-26
  1.6100e+05   4.17e-26
  1.6712e+05   3.94e-26
  1.7348e+05   3.73e-26
  1.8008e+05   3.52e-26
  1.8693e+05   3.33e-26
  1.9404e+05   3.14e-26
  2.0142e+05   2.97e-26
  2.0908e+05   2.80e-26
  2.1704e+05   2.64e-26
  2.2529e+05   2.49e-26
  2.3387e+05   2.34e-26
  2.4276e+05   2.20e-26
  2.5200e+05   2.07e-26
  2.6158e+05   1.95e-26
  2.7154e+05   1.83e-26
  2.8187e+05   1.72e-26
  2.9259e+05   1.61e-26
  3.0372e+05   1.51e-26
  3.1527e+05   1.41e-26
  3.2727e+05   1.32e-26
  3.3972e+05   1.23e-26
  3.5264e+05   1.15e-26
  3.6606e+05   1.08e-26
  3.7998e+05   1.00e-26
  3.9444e+05   9.33e-27
  4.0945e+05   8.68e-27
  4.2502e+05   8.06e-27
  4.4119e+05   7.49e-27
  4.5798e+05   6.95e-27
  4.7540e+05   6.44e-27
  4.9348e+05   5.96e-27
  5.1226e+05   5.52e-27
  5.3175e+05   5.10e-27
  5.5198e+05   4.71e-27
  5.7297e+05   4.35e-27
  5.9477e+05   4.01e-27
  6.1740e+05   3.70e-27
  6.4089e+05   3.40e-27
  6.6527e+05   3.13e-27
  6.9058e+05   2.88e-27
  7.1685e+05   2.65e-27
  7.4412e+05   2.43e-27
  7.7243e+05   2.24e-27
  8.0181e+05   2.05e-27
  8.3232e+05   1.88e-27
  8.6398e+05   1.73e-27
  8.9685e+05   1.58e-27
  9.3097e+05   1.45e-27
  9.6638e+05   1.33e-27
  1.0031e+06   1.22e-27
  1.0413e+06   1.12e-27
  1.0809e+06   1.02e-27
  1.1220e+06   9.35e-28
  1.1647e+06   8.55e-28
  1.2090e+06   7.82e-28
  1.2550e+06   7.15e-28
  1.3028e+06   6.54e-28
  1.3523e+06   5.97e-28
  1.4038e+06   5.46e-28
  1.4572e+06   4.98e-28
  1.5126e+06   4.55e-28
  1.5702e+06   4.15e-28
  1.6299e+06   3.79e-28
  1.6919e+06   3.45e-28
  1.7563e+06   3.15e-28
  1.8231e+06   2.87e-28
  1.8925e+06   2.61e-28
  1.9645e+06   2.38e-28
  2.0392e+06   2.16e-28
  2.1168e+06   1.96e-28
  2.1973e+06   1.79e-28
  2.2809e+06   1.62e-28
  2.3677e+06   1.47e-28
  2.4577e+06   1.33e-28
  2.5512e+06   1.20e-28
  2.6483e+06   1.09e-28
  2.7490e+06   9.80e-29
  2.8536e+06   8.84e-29
  2.9622e+06   7.94e-29
  3.0749e+06   7.14e-29
  3.1918e+06   6.41e-29
  3.3133e+06   5.74e-29
  3.4393e+06   5.14e-29
  3.5702e+06   4.59e-29
  3.7060e+06   4.08e-29
  3.8470e+06   3.63e-29
  3.9933e+06   3.23e-29
  4.1452e+06   2.86e-29
  4.3029e+06   2.53e-29
  4.4666e+06   2.23e-29
  4.6366e+06   1.96e-29
  4.8129e+06   1.72e-29
  4.9960e+06   1.51e-29
  5.1861e+06   1.31e-29
  5.3834e+06   1.14e-29
  5.5882e+06   9.91e-30
  5.8008e+06   8.56e-30
  6.0215e+06   7.34e-30
  6.2506e+06   6.33e-30
  6.4883e+06   5.40e-30
  6.7352e+06   4.58e-30
  6.9914e+06   3.90e-30
  7.2574e+06   3.29e-30
  7.5335e+06   2.75e-30
  7.8201e+06   2.31e-30
  8.1176e+06   1.92e-30
  8.4264e+06   1.58e-30
  8.7470e+06   1.31e-30
  9.0797e+06   1.07e-30
  9.4251e+06   8.60e-31
  9.7837e+06   6.96e-31
  1.0156e+07   5.56e-31
  1.0542e+07   4.36e-31
  1.0943e+07   3.43e-31
  1.1360e+07   2.67e-31
  1.1792e+07   2.03e-31
  1.2240e+07   1.55e-31
  1.2706e+07   1.16e-31
  1.3189e+07   8.50e-32
  1.3691e+07   6.17e-32
  1.4212e+07   4.42e-32
  1.4753e+07   3.07e-32
  1.5314e+07   2.09e-32
  1.5897e+07   1.40e-32
  1.6501e+07   9.04e-33
  1.7129e+07   5.66e-33
  1.7781e+07   3.45e-33
  1.8457e+07   2.00e-33
  1.9159e+07   1.11e-33
  1.9888e+07   5.86e-34
  2.0645e+07   2.90e-34
  2.1430e+07   1.33e-34
  2.2245e+07   5.73e-35
  2.3092e+07   2.22e-35
  2.3970e+07   7.66e-36
  2.4882e+07   2.35e-36
  2.5829e+07   6.12e-37
  2.6811e+07   1.33e-37
  2.7831e+07   2.33e-38
  2.8890e+07   3.16e-39
  2.9989e+07   3.13e-40
  3.1130e+07   2.16e-41
  3.2314e+07   9.49e-43
  3.3544e+07   2.41e-44
  3.4820e+07   3.17e-46
  3.6144e+07   1.83e-48
  3.7519e+07   3.85e-51
  3.8947e+07   2.29e-54
  4.0428e+07   2.80e-58
  4.1966e+07   4.66e-63
  4.3563e+07   6.14e-69
  4.5220e+07   4.95e-72
  4.6941e+07   4.45e-72
  4.8726e+07   4.06e-72
  5.0580e+07   3.72e-72
