#  E [MeV]   Flux [# cm^{-2} s^{-1}  MeV^{-1}]
  3.0000e+04   4.10e-25
  3.1141e+04   3.93e-25
  3.2326e+04   3.77e-25
  3.3556e+04   3.62e-25
  3.4832e+04   3.47e-25
  3.6157e+04   3.33e-25
  3.7533e+04   3.19e-25
  3.8961e+04   3.06e-25
  4.0443e+04   2.93e-25
  4.1982e+04   2.81e-25
  4.3579e+04   2.70e-25
  4.5237e+04   2.58e-25
  4.6958e+04   2.48e-25
  4.8744e+04   2.37e-25
  5.0598e+04   2.28e-25
  5.2523e+04   2.18e-25
  5.4521e+04   2.09e-25
  5.6596e+04   2.00e-25
  5.8749e+04   1.92e-25
  6.0984e+04   1.84e-25
  6.3304e+04   1.76e-25
  6.5712e+04   1.68e-25
  6.8212e+04   1.61e-25
  7.0807e+04   1.54e-25
  7.3500e+04   1.48e-25
  7.6297e+04   1.41e-25
  7.9199e+04   1.35e-25
  8.2212e+04   1.29e-25
  8.5340e+04   1.24e-25
  8.8586e+04   1.18e-25
  9.1956e+04   1.13e-25
  9.5455e+04   1.08e-25
  9.9086e+04   1.03e-25
  1.0286e+05   9.87e-26
  1.0677e+05   9.43e-26
  1.1083e+05   9.01e-26
  1.1505e+05   8.60e-26
  1.1942e+05   8.21e-26
  1.2397e+05   7.84e-26
  1.2868e+05   7.48e-26
  1.3358e+05   7.14e-26
  1.3866e+05   6.81e-26
  1.4394e+05   6.49e-26
  1.4941e+05   6.19e-26
  1.5509e+05   5.90e-26
  1.6100e+05   5.62e-26
  1.6712e+05   5.35e-26
  1.7348e+05   5.09e-26
  1.8008e+05   4.84e-26
  1.8693e+05   4.61e-26
  1.9404e+05   4.38e-26
  2.0142e+05   4.16e-26
  2.0908e+05   3.95e-26
  2.1704e+05   3.75e-26
  2.2529e+05   3.56e-26
  2.3387e+05   3.38e-26
  2.4276e+05   3.20e-26
  2.5200e+05   3.04e-26
  2.6158e+05   2.88e-26
  2.7154e+05   2.72e-26
  2.8187e+05   2.58e-26
  2.9259e+05   2.44e-26
  3.0372e+05   2.31e-26
  3.1527e+05   2.18e-26
  3.2727e+05   2.06e-26
  3.3972e+05   1.94e-26
  3.5264e+05   1.83e-26
  3.6606e+05   1.72e-26
  3.7998e+05   1.62e-26
  3.9444e+05   1.53e-26
  4.0945e+05   1.43e-26
  4.2502e+05   1.35e-26
  4.4119e+05   1.27e-26
  4.5798e+05   1.19e-26
  4.7540e+05   1.11e-26
  4.9348e+05   1.04e-26
  5.1226e+05   9.78e-27
  5.3175e+05   9.16e-27
  5.5198e+05   8.57e-27
  5.7297e+05   8.01e-27
  5.9477e+05   7.49e-27
  6.1740e+05   6.99e-27
  6.4089e+05   6.52e-27
  6.6527e+05   6.08e-27
  6.9058e+05   5.67e-27
  7.1685e+05   5.28e-27
  7.4412e+05   4.92e-27
  7.7243e+05   4.58e-27
  8.0181e+05   4.26e-27
  8.3232e+05   3.96e-27
  8.6398e+05   3.68e-27
  8.9685e+05   3.43e-27
  9.3097e+05   3.18e-27
  9.6638e+05   2.96e-27
  1.0031e+06   2.75e-27
  1.0413e+06   2.55e-27
  1.0809e+06   2.36e-27
  1.1220e+06   2.19e-27
  1.1647e+06   2.03e-27
  1.2090e+06   1.89e-27
  1.2550e+06   1.75e-27
  1.3028e+06   1.62e-27
  1.3523e+06   1.50e-27
  1.4038e+06   1.39e-27
  1.4572e+06   1.29e-27
  1.5126e+06   1.19e-27
  1.5702e+06   1.10e-27
  1.6299e+06   1.02e-27
  1.6919e+06   9.41e-28
  1.7563e+06   8.69e-28
  1.8231e+06   8.03e-28
  1.8925e+06   7.42e-28
  1.9645e+06   6.84e-28
  2.0392e+06   6.32e-28
  2.1168e+06   5.83e-28
  2.1973e+06   5.37e-28
  2.2809e+06   4.95e-28
  2.3677e+06   4.56e-28
  2.4577e+06   4.19e-28
  2.5512e+06   3.86e-28
  2.6483e+06   3.54e-28
  2.7490e+06   3.25e-28
  2.8536e+06   2.98e-28
  2.9622e+06   2.73e-28
  3.0749e+06   2.50e-28
  3.1918e+06   2.29e-28
  3.3133e+06   2.10e-28
  3.4393e+06   1.91e-28
  3.5702e+06   1.75e-28
  3.7060e+06   1.59e-28
  3.8470e+06   1.45e-28
  3.9933e+06   1.32e-28
  4.1452e+06   1.20e-28
  4.3029e+06   1.09e-28
  4.4666e+06   9.86e-29
  4.6366e+06   8.93e-29
  4.8129e+06   8.06e-29
  4.9960e+06   7.28e-29
  5.1861e+06   6.56e-29
  5.3834e+06   5.89e-29
  5.5882e+06   5.29e-29
  5.8008e+06   4.75e-29
  6.0215e+06   4.24e-29
  6.2506e+06   3.78e-29
  6.4883e+06   3.38e-29
  6.7352e+06   3.00e-29
  6.9914e+06   2.66e-29
  7.2574e+06   2.36e-29
  7.5335e+06   2.08e-29
  7.8201e+06   1.83e-29
  8.1176e+06   1.61e-29
  8.4264e+06   1.41e-29
  8.7470e+06   1.23e-29
  9.0797e+06   1.07e-29
  9.4251e+06   9.25e-30
  9.7837e+06   7.97e-30
  1.0156e+07   6.88e-30
  1.0542e+07   5.88e-30
  1.0943e+07   4.99e-30
  1.1360e+07   4.25e-30
  1.1792e+07   3.58e-30
  1.2240e+07   2.99e-30
  1.2706e+07   2.50e-30
  1.3189e+07   2.07e-30
  1.3691e+07   1.69e-30
  1.4212e+07   1.38e-30
  1.4753e+07   1.11e-30
  1.5314e+07   8.81e-31
  1.5897e+07   6.97e-31
  1.6501e+07   5.42e-31
  1.7129e+07   4.13e-31
  1.7781e+07   3.12e-31
  1.8457e+07   2.31e-31
  1.9159e+07   1.66e-31
  1.9888e+07   1.17e-31
  2.0645e+07   8.05e-32
  2.1430e+07   5.32e-32
  2.2245e+07   3.39e-32
  2.3092e+07   2.07e-32
  2.3970e+07   1.19e-32
  2.4882e+07   6.45e-33
  2.5829e+07   3.25e-33
  2.6811e+07   1.49e-33
  2.7831e+07   6.14e-34
  2.8890e+07   2.24e-34
  2.9989e+07   6.94e-35
  3.1130e+07   1.80e-35
  3.2314e+07   3.75e-36
  3.3544e+07   5.88e-37
  3.4820e+07   6.60e-38
  3.6144e+07   4.96e-39
  3.7519e+07   2.18e-40
  3.8947e+07   5.06e-42
  4.0428e+07   5.45e-44
  4.1966e+07   2.02e-46
  4.3563e+07   2.03e-49
  4.5220e+07   4.37e-53
  4.6941e+07   9.39e-58
  4.8726e+07   1.06e-63
  5.0580e+07   6.79e-70
