#  E [GeV]   # per interaction  [GeV^{-1}]
  3.0000e+01   1.83e-02
  3.0962e+01   1.76e-02
  3.1955e+01   1.69e-02
  3.2979e+01   1.63e-02
  3.4037e+01   1.57e-02
  3.5128e+01   1.51e-02
  3.6254e+01   1.45e-02
  3.7417e+01   1.39e-02
  3.8616e+01   1.34e-02
  3.9855e+01   1.29e-02
  4.1132e+01   1.24e-02
  4.2451e+01   1.19e-02
  4.3812e+01   1.14e-02
  4.5217e+01   1.10e-02
  4.6667e+01   1.05e-02
  4.8163e+01   1.01e-02
  4.9707e+01   9.71e-03
  5.1301e+01   9.32e-03
  5.2946e+01   8.94e-03
  5.4644e+01   8.58e-03
  5.6396e+01   8.22e-03
  5.8204e+01   7.89e-03
  6.0070e+01   7.56e-03
  6.1996e+01   7.25e-03
  6.3984e+01   6.94e-03
  6.6035e+01   6.65e-03
  6.8153e+01   6.37e-03
  7.0338e+01   6.10e-03
  7.2593e+01   5.84e-03
  7.4921e+01   5.59e-03
  7.7323e+01   5.35e-03
  7.9802e+01   5.12e-03
  8.2361e+01   4.90e-03
  8.5002e+01   4.69e-03
  8.7727e+01   4.48e-03
  9.0540e+01   4.29e-03
  9.3443e+01   4.10e-03
  9.6439e+01   3.91e-03
  9.9531e+01   3.74e-03
  1.0272e+02   3.57e-03
  1.0602e+02   3.41e-03
  1.0942e+02   3.26e-03
  1.1292e+02   3.11e-03
  1.1654e+02   2.97e-03
  1.2028e+02   2.83e-03
  1.2414e+02   2.70e-03
  1.2812e+02   2.57e-03
  1.3223e+02   2.45e-03
  1.3646e+02   2.34e-03
  1.4084e+02   2.23e-03
  1.4536e+02   2.12e-03
  1.5002e+02   2.02e-03
  1.5483e+02   1.93e-03
  1.5979e+02   1.83e-03
  1.6491e+02   1.74e-03
  1.7020e+02   1.66e-03
  1.7566e+02   1.58e-03
  1.8129e+02   1.50e-03
  1.8710e+02   1.42e-03
  1.9310e+02   1.35e-03
  1.9929e+02   1.29e-03
  2.0568e+02   1.22e-03
  2.1228e+02   1.16e-03
  2.1909e+02   1.10e-03
  2.2611e+02   1.04e-03
  2.3336e+02   9.89e-04
  2.4084e+02   9.37e-04
  2.4856e+02   8.88e-04
  2.5653e+02   8.41e-04
  2.6476e+02   7.96e-04
  2.7325e+02   7.54e-04
  2.8201e+02   7.13e-04
  2.9105e+02   6.74e-04
  3.0038e+02   6.37e-04
  3.1002e+02   6.02e-04
  3.1996e+02   5.68e-04
  3.3021e+02   5.36e-04
  3.4080e+02   5.06e-04
  3.5173e+02   4.77e-04
  3.6301e+02   4.49e-04
  3.7465e+02   4.23e-04
  3.8666e+02   3.98e-04
  3.9905e+02   3.75e-04
  4.1185e+02   3.53e-04
  4.2506e+02   3.32e-04
  4.3868e+02   3.12e-04
  4.5275e+02   2.93e-04
  4.6727e+02   2.75e-04
  4.8225e+02   2.58e-04
  4.9771e+02   2.42e-04
  5.1367e+02   2.27e-04
  5.3014e+02   2.13e-04
  5.4714e+02   2.00e-04
  5.6468e+02   1.87e-04
  5.8278e+02   1.76e-04
  6.0147e+02   1.64e-04
  6.2075e+02   1.54e-04
  6.4066e+02   1.44e-04
  6.6120e+02   1.35e-04
  6.8240e+02   1.27e-04
  7.0428e+02   1.19e-04
  7.2686e+02   1.11e-04
  7.5017e+02   1.04e-04
  7.7422e+02   9.77e-05
  7.9904e+02   9.16e-05
  8.2466e+02   8.58e-05
  8.5110e+02   8.05e-05
  8.7839e+02   7.55e-05
  9.0656e+02   7.09e-05
  9.3562e+02   6.65e-05
  9.6562e+02   6.25e-05
  9.9658e+02   5.87e-05
  1.0285e+03   5.52e-05
  1.0615e+03   5.19e-05
  1.0956e+03   4.88e-05
  1.1307e+03   4.60e-05
  1.1669e+03   4.33e-05
  1.2043e+03   4.08e-05
  1.2430e+03   3.85e-05
  1.2828e+03   3.63e-05
  1.3239e+03   3.42e-05
  1.3664e+03   3.23e-05
  1.4102e+03   3.06e-05
  1.4554e+03   2.89e-05
  1.5021e+03   2.74e-05
  1.5502e+03   2.59e-05
  1.6000e+03   2.45e-05
  1.6513e+03   2.32e-05
  1.7042e+03   2.20e-05
  1.7588e+03   2.09e-05
  1.8152e+03   1.98e-05
  1.8734e+03   1.88e-05
  1.9335e+03   1.79e-05
  1.9955e+03   1.70e-05
  2.0595e+03   1.61e-05
  2.1255e+03   1.53e-05
  2.1937e+03   1.46e-05
  2.2640e+03   1.38e-05
  2.3366e+03   1.32e-05
  2.4115e+03   1.25e-05
  2.4888e+03   1.19e-05
  2.5686e+03   1.13e-05
  2.6510e+03   1.08e-05
  2.7360e+03   1.02e-05
  2.8237e+03   9.71e-06
  2.9142e+03   9.23e-06
  3.0077e+03   8.76e-06
  3.1041e+03   8.32e-06
  3.2036e+03   7.90e-06
  3.3064e+03   7.50e-06
  3.4124e+03   7.11e-06
  3.5218e+03   6.74e-06
  3.6347e+03   6.38e-06
  3.7512e+03   6.03e-06
  3.8715e+03   5.70e-06
  3.9957e+03   5.39e-06
  4.1238e+03   5.08e-06
  4.2560e+03   4.79e-06
  4.3924e+03   4.50e-06
  4.5333e+03   4.23e-06
  4.6786e+03   3.97e-06
  4.8286e+03   3.72e-06
  4.9835e+03   3.48e-06
  5.1433e+03   3.25e-06
  5.3082e+03   3.03e-06
  5.4784e+03   2.82e-06
  5.6540e+03   2.62e-06
  5.8353e+03   2.43e-06
  6.0224e+03   2.24e-06
  6.2155e+03   2.07e-06
  6.4148e+03   1.90e-06
  6.6205e+03   1.75e-06
  6.8327e+03   1.60e-06
  7.0518e+03   1.45e-06
  7.2779e+03   1.32e-06
  7.5113e+03   1.19e-06
  7.7521e+03   1.07e-06
  8.0007e+03   9.64e-07
  8.2572e+03   8.61e-07
  8.5219e+03   7.65e-07
  8.7952e+03   6.76e-07
  9.0772e+03   5.94e-07
  9.3682e+03   5.19e-07
  9.6686e+03   4.50e-07
  9.9786e+03   3.88e-07
  1.0299e+04   3.32e-07
  1.0629e+04   2.81e-07
  1.0970e+04   2.36e-07
  1.1321e+04   1.97e-07
  1.1684e+04   1.62e-07
  1.2059e+04   1.32e-07
  1.2446e+04   1.06e-07
  1.2845e+04   8.38e-08
  1.3256e+04   6.54e-08
  1.3681e+04   5.01e-08
  1.4120e+04   3.77e-08
  1.4573e+04   2.78e-08
  1.5040e+04   2.02e-08
  1.5522e+04   1.43e-08
  1.6020e+04   9.89e-09
