#  E [GeV]   # per interaction  [GeV^{-1}]
  3.0000e+01   2.54e-02
  3.1123e+01   2.44e-02
  3.2288e+01   2.35e-02
  3.3497e+01   2.26e-02
  3.4751e+01   2.17e-02
  3.6051e+01   2.08e-02
  3.7401e+01   2.00e-02
  3.8801e+01   1.92e-02
  4.0253e+01   1.85e-02
  4.1760e+01   1.77e-02
  4.3324e+01   1.70e-02
  4.4945e+01   1.63e-02
  4.6628e+01   1.57e-02
  4.8373e+01   1.50e-02
  5.0184e+01   1.44e-02
  5.2063e+01   1.38e-02
  5.4011e+01   1.32e-02
  5.6033e+01   1.27e-02
  5.8131e+01   1.22e-02
  6.0307e+01   1.16e-02
  6.2564e+01   1.11e-02
  6.4906e+01   1.07e-02
  6.7336e+01   1.02e-02
  6.9857e+01   9.76e-03
  7.2472e+01   9.34e-03
  7.5184e+01   8.93e-03
  7.7999e+01   8.53e-03
  8.0919e+01   8.15e-03
  8.3948e+01   7.78e-03
  8.7090e+01   7.43e-03
  9.0350e+01   7.09e-03
  9.3732e+01   6.77e-03
  9.7241e+01   6.46e-03
  1.0088e+02   6.16e-03
  1.0466e+02   5.87e-03
  1.0858e+02   5.59e-03
  1.1264e+02   5.33e-03
  1.1686e+02   5.08e-03
  1.2123e+02   4.83e-03
  1.2577e+02   4.60e-03
  1.3048e+02   4.37e-03
  1.3536e+02   4.16e-03
  1.4043e+02   3.95e-03
  1.4568e+02   3.75e-03
  1.5114e+02   3.56e-03
  1.5680e+02   3.38e-03
  1.6266e+02   3.21e-03
  1.6875e+02   3.04e-03
  1.7507e+02   2.88e-03
  1.8162e+02   2.73e-03
  1.8842e+02   2.58e-03
  1.9548e+02   2.44e-03
  2.0279e+02   2.31e-03
  2.1039e+02   2.18e-03
  2.1826e+02   2.06e-03
  2.2643e+02   1.94e-03
  2.3491e+02   1.83e-03
  2.4370e+02   1.73e-03
  2.5282e+02   1.63e-03
  2.6229e+02   1.53e-03
  2.7211e+02   1.44e-03
  2.8229e+02   1.35e-03
  2.9286e+02   1.27e-03
  3.0382e+02   1.19e-03
  3.1519e+02   1.12e-03
  3.2699e+02   1.05e-03
  3.3923e+02   9.78e-04
  3.5193e+02   9.15e-04
  3.6511e+02   8.54e-04
  3.7877e+02   7.97e-04
  3.9295e+02   7.44e-04
  4.0766e+02   6.93e-04
  4.2292e+02   6.45e-04
  4.3875e+02   6.00e-04
  4.5518e+02   5.57e-04
  4.7222e+02   5.18e-04
  4.8989e+02   4.80e-04
  5.0823e+02   4.46e-04
  5.2726e+02   4.13e-04
  5.4699e+02   3.82e-04
  5.6747e+02   3.54e-04
  5.8871e+02   3.27e-04
  6.1075e+02   3.03e-04
  6.3361e+02   2.80e-04
  6.5733e+02   2.58e-04
  6.8194e+02   2.38e-04
  7.0746e+02   2.20e-04
  7.3395e+02   2.03e-04
  7.6142e+02   1.88e-04
  7.8992e+02   1.73e-04
  8.1949e+02   1.60e-04
  8.5017e+02   1.48e-04
  8.8199e+02   1.36e-04
  9.1501e+02   1.26e-04
  9.4926e+02   1.16e-04
  9.8479e+02   1.07e-04
  1.0217e+03   9.92e-05
  1.0599e+03   9.17e-05
  1.0996e+03   8.49e-05
  1.1407e+03   7.85e-05
  1.1834e+03   7.27e-05
  1.2277e+03   6.74e-05
  1.2737e+03   6.25e-05
  1.3214e+03   5.80e-05
  1.3708e+03   5.39e-05
  1.4222e+03   5.01e-05
  1.4754e+03   4.66e-05
  1.5306e+03   4.33e-05
  1.5879e+03   4.03e-05
  1.6474e+03   3.76e-05
  1.7090e+03   3.50e-05
  1.7730e+03   3.27e-05
  1.8394e+03   3.05e-05
  1.9082e+03   2.85e-05
  1.9797e+03   2.66e-05
  2.0538e+03   2.49e-05
  2.1306e+03   2.33e-05
  2.2104e+03   2.18e-05
  2.2931e+03   2.04e-05
  2.3790e+03   1.91e-05
  2.4680e+03   1.79e-05
  2.5604e+03   1.67e-05
  2.6563e+03   1.57e-05
  2.7557e+03   1.47e-05
  2.8589e+03   1.38e-05
  2.9659e+03   1.29e-05
  3.0769e+03   1.21e-05
  3.1921e+03   1.13e-05
  3.3116e+03   1.06e-05
  3.4355e+03   9.91e-06
  3.5641e+03   9.27e-06
  3.6976e+03   8.66e-06
  3.8360e+03   8.09e-06
  3.9796e+03   7.55e-06
  4.1285e+03   7.03e-06
  4.2831e+03   6.55e-06
  4.4434e+03   6.09e-06
  4.6097e+03   5.66e-06
  4.7823e+03   5.25e-06
  4.9613e+03   4.86e-06
  5.1470e+03   4.49e-06
  5.3397e+03   4.14e-06
  5.5396e+03   3.81e-06
  5.7470e+03   3.50e-06
  5.9621e+03   3.20e-06
  6.1853e+03   2.93e-06
  6.4168e+03   2.66e-06
  6.6570e+03   2.41e-06
  6.9062e+03   2.18e-06
  7.1647e+03   1.96e-06
  7.4329e+03   1.76e-06
  7.7112e+03   1.57e-06
  7.9998e+03   1.39e-06
  8.2993e+03   1.22e-06
  8.6100e+03   1.07e-06
  8.9323e+03   9.28e-07
  9.2666e+03   8.00e-07
  9.6135e+03   6.84e-07
  9.9734e+03   5.79e-07
  1.0347e+04   4.85e-07
  1.0734e+04   4.02e-07
  1.1136e+04   3.28e-07
  1.1553e+04   2.65e-07
  1.1985e+04   2.10e-07
  1.2434e+04   1.64e-07
  1.2899e+04   1.26e-07
  1.3382e+04   9.44e-08
  1.3883e+04   6.92e-08
  1.4403e+04   4.95e-08
  1.4942e+04   3.43e-08
  1.5501e+04   2.31e-08
  1.6081e+04   1.49e-08
  1.6683e+04   9.29e-09
  1.7308e+04   5.52e-09
  1.7956e+04   3.11e-09
  1.8628e+04   1.65e-09
  1.9325e+04   8.23e-10
  2.0049e+04   3.79e-10
  2.0799e+04   1.60e-10
  2.1578e+04   6.13e-11
  2.2386e+04   2.09e-11
  2.3224e+04   6.25e-12
  2.4093e+04   1.60e-12
  2.4995e+04   3.44e-13
  2.5930e+04   6.00e-14
  2.6901e+04   8.21e-15
  2.7908e+04   8.44e-16
  2.8953e+04   6.20e-17
  3.0037e+04   3.06e-18
  3.1161e+04   9.37e-20
  3.2327e+04   1.63e-21
  3.3537e+04   1.42e-23
  3.4793e+04   5.45e-26
  3.6095e+04   7.63e-29
  3.7446e+04   3.13e-32
  3.8848e+04   2.83e-36
  4.0302e+04   3.96e-41
  4.1811e+04   1.09e-46
  4.3376e+04   1.04e-46
  4.5000e+04   9.82e-47
