#  E [MeV]   Flux [# cm^{-2} s^{-1}  MeV^{-1}]
  3.0000e+04   1.13e-23
  3.0962e+04   1.08e-23
  3.1955e+04   1.04e-23
  3.2979e+04   9.96e-24
  3.4037e+04   9.56e-24
  3.5128e+04   9.18e-24
  3.6254e+04   8.80e-24
  3.7417e+04   8.45e-24
  3.8616e+04   8.10e-24
  3.9855e+04   7.77e-24
  4.1132e+04   7.45e-24
  4.2451e+04   7.15e-24
  4.3812e+04   6.85e-24
  4.5217e+04   6.57e-24
  4.6667e+04   6.30e-24
  4.8163e+04   6.03e-24
  4.9707e+04   5.78e-24
  5.1301e+04   5.54e-24
  5.2946e+04   5.30e-24
  5.4644e+04   5.08e-24
  5.6396e+04   4.86e-24
  5.8204e+04   4.65e-24
  6.0070e+04   4.45e-24
  6.1996e+04   4.26e-24
  6.3984e+04   4.07e-24
  6.6035e+04   3.90e-24
  6.8153e+04   3.73e-24
  7.0338e+04   3.56e-24
  7.2593e+04   3.40e-24
  7.4921e+04   3.25e-24
  7.7323e+04   3.11e-24
  7.9802e+04   2.97e-24
  8.2361e+04   2.83e-24
  8.5002e+04   2.71e-24
  8.7727e+04   2.58e-24
  9.0540e+04   2.47e-24
  9.3443e+04   2.35e-24
  9.6439e+04   2.24e-24
  9.9531e+04   2.14e-24
  1.0272e+05   2.04e-24
  1.0602e+05   1.94e-24
  1.0942e+05   1.85e-24
  1.1292e+05   1.76e-24
  1.1654e+05   1.68e-24
  1.2028e+05   1.59e-24
  1.2414e+05   1.52e-24
  1.2812e+05   1.44e-24
  1.3223e+05   1.37e-24
  1.3646e+05   1.30e-24
  1.4084e+05   1.24e-24
  1.4536e+05   1.17e-24
  1.5002e+05   1.12e-24
  1.5483e+05   1.06e-24
  1.5979e+05   1.00e-24
  1.6491e+05   9.52e-25
  1.7020e+05   9.02e-25
  1.7566e+05   8.55e-25
  1.8129e+05   8.10e-25
  1.8710e+05   7.67e-25
  1.9310e+05   7.25e-25
  1.9929e+05   6.86e-25
  2.0568e+05   6.49e-25
  2.1228e+05   6.14e-25
  2.1909e+05   5.80e-25
  2.2611e+05   5.48e-25
  2.3336e+05   5.17e-25
  2.4084e+05   4.88e-25
  2.4856e+05   4.60e-25
  2.5653e+05   4.34e-25
  2.6476e+05   4.09e-25
  2.7325e+05   3.85e-25
  2.8201e+05   3.62e-25
  2.9105e+05   3.41e-25
  3.0038e+05   3.21e-25
  3.1002e+05   3.01e-25
  3.1996e+05   2.83e-25
  3.3021e+05   2.66e-25
  3.4080e+05   2.49e-25
  3.5173e+05   2.34e-25
  3.6301e+05   2.19e-25
  3.7465e+05   2.05e-25
  3.8666e+05   1.92e-25
  3.9905e+05   1.79e-25
  4.1185e+05   1.68e-25
  4.2506e+05   1.56e-25
  4.3868e+05   1.46e-25
  4.5275e+05   1.36e-25
  4.6727e+05   1.27e-25
  4.8225e+05   1.18e-25
  4.9771e+05   1.10e-25
  5.1367e+05   1.02e-25
  5.3014e+05   9.48e-26
  5.4714e+05   8.79e-26
  5.6468e+05   8.16e-26
  5.8278e+05   7.57e-26
  6.0147e+05   7.00e-26
  6.2075e+05   6.48e-26
  6.4066e+05   6.00e-26
  6.6120e+05   5.55e-26
  6.8240e+05   5.12e-26
  7.0428e+05   4.73e-26
  7.2686e+05   4.36e-26
  7.5017e+05   4.02e-26
  7.7422e+05   3.70e-26
  7.9904e+05   3.41e-26
  8.2466e+05   3.13e-26
  8.5110e+05   2.87e-26
  8.7839e+05   2.64e-26
  9.0656e+05   2.42e-26
  9.3562e+05   2.22e-26
  9.6562e+05   2.03e-26
  9.9658e+05   1.86e-26
  1.0285e+06   1.70e-26
  1.0615e+06   1.56e-26
  1.0956e+06   1.42e-26
  1.1307e+06   1.30e-26
  1.1669e+06   1.19e-26
  1.2043e+06   1.08e-26
  1.2430e+06   9.83e-27
  1.2828e+06   8.97e-27
  1.3239e+06   8.16e-27
  1.3664e+06   7.40e-27
  1.4102e+06   6.74e-27
  1.4554e+06   6.13e-27
  1.5021e+06   5.55e-27
  1.5502e+06   5.02e-27
  1.6000e+06   4.56e-27
  1.6513e+06   4.13e-27
  1.7042e+06   3.73e-27
  1.7588e+06   3.36e-27
  1.8152e+06   3.05e-27
  1.8734e+06   2.75e-27
  1.9335e+06   2.46e-27
  1.9955e+06   2.23e-27
  2.0595e+06   2.01e-27
  2.1255e+06   1.80e-27
  2.1937e+06   1.61e-27
  2.2640e+06   1.46e-27
  2.3366e+06   1.31e-27
  2.4115e+06   1.17e-27
  2.4888e+06   1.05e-27
  2.5686e+06   9.39e-28
  2.6510e+06   8.39e-28
  2.7360e+06   7.45e-28
  2.8237e+06   6.68e-28
  2.9142e+06   5.97e-28
  3.0077e+06   5.31e-28
  3.1041e+06   4.71e-28
  3.2036e+06   4.21e-28
  3.3064e+06   3.74e-28
  3.4124e+06   3.30e-28
  3.5218e+06   2.93e-28
  3.6347e+06   2.61e-28
  3.7512e+06   2.31e-28
  3.8715e+06   2.02e-28
  3.9957e+06   1.80e-28
  4.1238e+06   1.60e-28
  4.2560e+06   1.41e-28
  4.3924e+06   1.24e-28
  4.5333e+06   1.10e-28
  4.6786e+06   9.72e-29
  4.8286e+06   8.52e-29
  4.9835e+06   7.54e-29
  5.1433e+06   6.69e-29
  5.3082e+06   5.89e-29
  5.4784e+06   5.14e-29
  5.6540e+06   4.58e-29
  5.8353e+06   4.06e-29
  6.0224e+06   3.56e-29
  6.2155e+06   3.14e-29
  6.4148e+06   2.80e-29
  6.6205e+06   2.49e-29
  6.8327e+06   2.19e-29
  7.0518e+06   1.95e-29
  7.2779e+06   1.75e-29
  7.5113e+06   1.55e-29
  7.7521e+06   1.37e-29
  8.0007e+06   1.23e-29
  8.2572e+06   1.10e-29
  8.5219e+06   9.79e-30
  8.7952e+06   8.72e-30
  9.0772e+06   7.82e-30
  9.3682e+06   6.97e-30
  9.6686e+06   6.18e-30
  9.9786e+06   5.52e-30
  1.0299e+07   4.93e-30
  1.0629e+07   4.38e-30
  1.0970e+07   3.87e-30
  1.1321e+07   3.44e-30
  1.1684e+07   3.03e-30
  1.2059e+07   2.66e-30
  1.2446e+07   2.33e-30
  1.2845e+07   2.02e-30
  1.3256e+07   1.75e-30
  1.3681e+07   1.50e-30
  1.4120e+07   1.27e-30
  1.4573e+07   1.07e-30
  1.5040e+07   8.86e-31
  1.5522e+07   7.32e-31
  1.6020e+07   6.09e-31
