#  E [MeV]   Flux [# cm^{-2} s^{-1}  MeV^{-1}]
  3.0000e+04   4.25e-22
  3.1123e+04   4.09e-22
  3.2288e+04   3.93e-22
  3.3497e+04   3.78e-22
  3.4751e+04   3.63e-22
  3.6051e+04   3.49e-22
  3.7401e+04   3.35e-22
  3.8801e+04   3.22e-22
  4.0253e+04   3.09e-22
  4.1760e+04   2.97e-22
  4.3324e+04   2.85e-22
  4.4945e+04   2.73e-22
  4.6628e+04   2.62e-22
  4.8373e+04   2.51e-22
  5.0184e+04   2.41e-22
  5.2063e+04   2.31e-22
  5.4011e+04   2.21e-22
  5.6033e+04   2.12e-22
  5.8131e+04   2.03e-22
  6.0307e+04   1.94e-22
  6.2564e+04   1.86e-22
  6.4906e+04   1.78e-22
  6.7336e+04   1.70e-22
  6.9857e+04   1.63e-22
  7.2472e+04   1.56e-22
  7.5184e+04   1.49e-22
  7.7999e+04   1.42e-22
  8.0919e+04   1.36e-22
  8.3948e+04   1.30e-22
  8.7090e+04   1.24e-22
  9.0350e+04   1.18e-22
  9.3732e+04   1.13e-22
  9.7241e+04   1.07e-22
  1.0088e+05   1.02e-22
  1.0466e+05   9.76e-23
  1.0858e+05   9.30e-23
  1.1264e+05   8.85e-23
  1.1686e+05   8.43e-23
  1.2123e+05   8.02e-23
  1.2577e+05   7.62e-23
  1.3048e+05   7.25e-23
  1.3536e+05   6.88e-23
  1.4043e+05   6.54e-23
  1.4568e+05   6.21e-23
  1.5114e+05   5.89e-23
  1.5680e+05   5.58e-23
  1.6266e+05   5.29e-23
  1.6875e+05   5.01e-23
  1.7507e+05   4.74e-23
  1.8162e+05   4.49e-23
  1.8842e+05   4.24e-23
  1.9548e+05   4.01e-23
  2.0279e+05   3.78e-23
  2.1039e+05   3.57e-23
  2.1826e+05   3.37e-23
  2.2643e+05   3.17e-23
  2.3491e+05   2.99e-23
  2.4370e+05   2.81e-23
  2.5282e+05   2.64e-23
  2.6229e+05   2.48e-23
  2.7211e+05   2.32e-23
  2.8229e+05   2.18e-23
  2.9286e+05   2.04e-23
  3.0382e+05   1.91e-23
  3.1519e+05   1.78e-23
  3.2699e+05   1.67e-23
  3.3923e+05   1.55e-23
  3.5193e+05   1.45e-23
  3.6511e+05   1.35e-23
  3.7877e+05   1.25e-23
  3.9295e+05   1.17e-23
  4.0766e+05   1.08e-23
  4.2292e+05   1.00e-23
  4.3875e+05   9.29e-24
  4.5518e+05   8.60e-24
  4.7222e+05   7.95e-24
  4.8989e+05   7.35e-24
  5.0823e+05   6.78e-24
  5.2726e+05   6.26e-24
  5.4699e+05   5.77e-24
  5.6747e+05   5.31e-24
  5.8871e+05   4.89e-24
  6.1075e+05   4.50e-24
  6.3361e+05   4.13e-24
  6.5733e+05   3.80e-24
  6.8194e+05   3.49e-24
  7.0746e+05   3.20e-24
  7.3395e+05   2.94e-24
  7.6142e+05   2.70e-24
  7.8992e+05   2.48e-24
  8.1949e+05   2.28e-24
  8.5017e+05   2.09e-24
  8.8199e+05   1.92e-24
  9.1501e+05   1.77e-24
  9.4926e+05   1.62e-24
  9.8479e+05   1.49e-24
  1.0217e+06   1.37e-24
  1.0599e+06   1.26e-24
  1.0996e+06   1.16e-24
  1.1407e+06   1.07e-24
  1.1834e+06   9.90e-25
  1.2277e+06   9.14e-25
  1.2737e+06   8.44e-25
  1.3214e+06   7.81e-25
  1.3708e+06   7.23e-25
  1.4222e+06   6.69e-25
  1.4754e+06   6.20e-25
  1.5306e+06   5.75e-25
  1.5879e+06   5.34e-25
  1.6474e+06   4.96e-25
  1.7090e+06   4.61e-25
  1.7730e+06   4.29e-25
  1.8394e+06   3.99e-25
  1.9082e+06   3.72e-25
  1.9797e+06   3.47e-25
  2.0538e+06   3.23e-25
  2.1306e+06   3.02e-25
  2.2104e+06   2.82e-25
  2.2931e+06   2.63e-25
  2.3790e+06   2.46e-25
  2.4680e+06   2.29e-25
  2.5604e+06   2.14e-25
  2.6563e+06   2.00e-25
  2.7557e+06   1.87e-25
  2.8589e+06   1.75e-25
  2.9659e+06   1.63e-25
  3.0769e+06   1.53e-25
  3.1921e+06   1.42e-25
  3.3116e+06   1.33e-25
  3.4355e+06   1.24e-25
  3.5641e+06   1.15e-25
  3.6976e+06   1.07e-25
  3.8360e+06   1.00e-25
  3.9796e+06   9.28e-26
  4.1285e+06   8.61e-26
  4.2831e+06   7.97e-26
  4.4434e+06   7.37e-26
  4.6097e+06   6.80e-26
  4.7823e+06   6.27e-26
  4.9613e+06   5.76e-26
  5.1470e+06   5.28e-26
  5.3397e+06   4.84e-26
  5.5396e+06   4.41e-26
  5.7470e+06   4.01e-26
  5.9621e+06   3.63e-26
  6.1853e+06   3.28e-26
  6.4168e+06   2.94e-26
  6.6570e+06   2.63e-26
  6.9062e+06   2.35e-26
  7.1647e+06   2.08e-26
  7.4329e+06   1.83e-26
  7.7112e+06   1.60e-26
  7.9998e+06   1.39e-26
  8.2993e+06   1.19e-26
  8.6100e+06   1.02e-26
  8.9323e+06   8.64e-27
  9.2666e+06   7.24e-27
  9.6135e+06   6.00e-27
  9.9734e+06   4.91e-27
  1.0347e+07   3.97e-27
  1.0734e+07   3.16e-27
  1.1136e+07   2.47e-27
  1.1553e+07   1.90e-27
  1.1985e+07   1.44e-27
  1.2434e+07   1.06e-27
  1.2899e+07   7.63e-28
  1.3382e+07   5.35e-28
  1.3883e+07   3.64e-28
  1.4403e+07   2.40e-28
  1.4942e+07   1.52e-28
  1.5501e+07   9.24e-29
  1.6081e+07   5.37e-29
  1.6683e+07   2.96e-29
  1.7308e+07   1.54e-29
  1.7956e+07   7.46e-30
  1.8628e+07   3.36e-30
  1.9325e+07   1.39e-30
  2.0049e+07   5.22e-31
  2.0799e+07   1.75e-31
  2.1578e+07   5.19e-32
  2.2386e+07   1.33e-32
  2.3224e+07   2.87e-33
  2.4093e+07   5.12e-34
  2.4995e+07   7.30e-35
  2.5930e+07   8.01e-36
  2.6901e+07   6.47e-37
  2.7908e+07   3.66e-38
  2.8953e+07   1.36e-39
  3.0037e+07   3.08e-41
  3.1161e+07   3.87e-43
  3.2327e+07   2.41e-45
  3.3537e+07   6.48e-48
  3.4793e+07   6.34e-51
  3.6095e+07   1.82e-54
  3.7446e+07   1.18e-58
  3.8848e+07   1.25e-63
  4.0302e+07   1.93e-66
  4.1811e+07   1.82e-66
  4.3376e+07   1.73e-66
  4.5000e+07   1.64e-66
