#  E [GeV]   # per interaction  [GeV^{-1}]
  3.0000e+01   5.93e-01
  3.1141e+01   5.69e-01
  3.2326e+01   5.46e-01
  3.3556e+01   5.24e-01
  3.4832e+01   5.02e-01
  3.6157e+01   4.82e-01
  3.7533e+01   4.62e-01
  3.8961e+01   4.43e-01
  4.0443e+01   4.25e-01
  4.1982e+01   4.07e-01
  4.3579e+01   3.91e-01
  4.5237e+01   3.74e-01
  4.6958e+01   3.59e-01
  4.8744e+01   3.44e-01
  5.0598e+01   3.30e-01
  5.2523e+01   3.16e-01
  5.4521e+01   3.03e-01
  5.6596e+01   2.90e-01
  5.8749e+01   2.78e-01
  6.0984e+01   2.66e-01
  6.3304e+01   2.55e-01
  6.5712e+01   2.44e-01
  6.8212e+01   2.34e-01
  7.0807e+01   2.24e-01
  7.3500e+01   2.14e-01
  7.6297e+01   2.05e-01
  7.9199e+01   1.96e-01
  8.2212e+01   1.88e-01
  8.5340e+01   1.80e-01
  8.8586e+01   1.72e-01
  9.1956e+01   1.65e-01
  9.5455e+01   1.57e-01
  9.9086e+01   1.50e-01
  1.0286e+02   1.44e-01
  1.0677e+02   1.37e-01
  1.1083e+02   1.31e-01
  1.1505e+02   1.26e-01
  1.1942e+02   1.20e-01
  1.2397e+02   1.15e-01
  1.2868e+02   1.09e-01
  1.3358e+02   1.04e-01
  1.3866e+02   9.97e-02
  1.4394e+02   9.52e-02
  1.4941e+02   9.08e-02
  1.5509e+02   8.66e-02
  1.6100e+02   8.26e-02
  1.6712e+02   7.87e-02
  1.7348e+02   7.50e-02
  1.8008e+02   7.15e-02
  1.8693e+02   6.81e-02
  1.9404e+02   6.48e-02
  2.0142e+02   6.17e-02
  2.0908e+02   5.87e-02
  2.1704e+02   5.59e-02
  2.2529e+02   5.31e-02
  2.3387e+02   5.05e-02
  2.4276e+02   4.80e-02
  2.5200e+02   4.56e-02
  2.6158e+02   4.33e-02
  2.7154e+02   4.11e-02
  2.8187e+02   3.90e-02
  2.9259e+02   3.71e-02
  3.0372e+02   3.52e-02
  3.1527e+02   3.33e-02
  3.2727e+02   3.16e-02
  3.3972e+02   2.99e-02
  3.5264e+02   2.83e-02
  3.6606e+02   2.68e-02
  3.7998e+02   2.53e-02
  3.9444e+02   2.39e-02
  4.0945e+02   2.26e-02
  4.2502e+02   2.14e-02
  4.4119e+02   2.02e-02
  4.5798e+02   1.90e-02
  4.7540e+02   1.80e-02
  4.9348e+02   1.69e-02
  5.1226e+02   1.60e-02
  5.3175e+02   1.50e-02
  5.5198e+02   1.42e-02
  5.7297e+02   1.33e-02
  5.9477e+02   1.25e-02
  6.1740e+02   1.18e-02
  6.4089e+02   1.11e-02
  6.6527e+02   1.04e-02
  6.9058e+02   9.78e-03
  7.1685e+02   9.18e-03
  7.4412e+02   8.61e-03
  7.7243e+02   8.07e-03
  8.0181e+02   7.57e-03
  8.3232e+02   7.09e-03
  8.6398e+02   6.64e-03
  8.9685e+02   6.22e-03
  9.3097e+02   5.82e-03
  9.6638e+02   5.44e-03
  1.0031e+03   5.09e-03
  1.0413e+03   4.76e-03
  1.0809e+03   4.45e-03
  1.1220e+03   4.15e-03
  1.1647e+03   3.88e-03
  1.2090e+03   3.62e-03
  1.2550e+03   3.37e-03
  1.3028e+03   3.14e-03
  1.3523e+03   2.93e-03
  1.4038e+03   2.73e-03
  1.4572e+03   2.54e-03
  1.5126e+03   2.36e-03
  1.5702e+03   2.19e-03
  1.6299e+03   2.04e-03
  1.6919e+03   1.90e-03
  1.7563e+03   1.76e-03
  1.8231e+03   1.63e-03
  1.8925e+03   1.52e-03
  1.9645e+03   1.40e-03
  2.0392e+03   1.30e-03
  2.1168e+03   1.21e-03
  2.1973e+03   1.11e-03
  2.2809e+03   1.03e-03
  2.3677e+03   9.54e-04
  2.4577e+03   8.81e-04
  2.5512e+03   8.13e-04
  2.6483e+03   7.51e-04
  2.7490e+03   6.92e-04
  2.8536e+03   6.37e-04
  2.9622e+03   5.87e-04
  3.0749e+03   5.40e-04
  3.1918e+03   4.96e-04
  3.3133e+03   4.56e-04
  3.4393e+03   4.19e-04
  3.5702e+03   3.84e-04
  3.7060e+03   3.52e-04
  3.8470e+03   3.22e-04
  3.9933e+03   2.95e-04
  4.1452e+03   2.70e-04
  4.3029e+03   2.47e-04
  4.4666e+03   2.25e-04
  4.6366e+03   2.06e-04
  4.8129e+03   1.87e-04
  4.9960e+03   1.70e-04
  5.1861e+03   1.55e-04
  5.3834e+03   1.41e-04
  5.5882e+03   1.28e-04
  5.8008e+03   1.16e-04
  6.0215e+03   1.05e-04
  6.2506e+03   9.49e-05
  6.4883e+03   8.60e-05
  6.7352e+03   7.77e-05
  6.9914e+03   6.99e-05
  7.2574e+03   6.31e-05
  7.5335e+03   5.69e-05
  7.8201e+03   5.10e-05
  8.1176e+03   4.59e-05
  8.4264e+03   4.12e-05
  8.7470e+03   3.68e-05
  9.0797e+03   3.30e-05
  9.4251e+03   2.95e-05
  9.7837e+03   2.63e-05
  1.0156e+04   2.35e-05
  1.0542e+04   2.09e-05
  1.0943e+04   1.86e-05
  1.1360e+04   1.65e-05
  1.1792e+04   1.47e-05
  1.2240e+04   1.30e-05
  1.2706e+04   1.14e-05
  1.3189e+04   1.01e-05
  1.3691e+04   8.92e-06
  1.4212e+04   7.84e-06
  1.4753e+04   6.91e-06
  1.5314e+04   6.06e-06
  1.5897e+04   5.29e-06
  1.6501e+04   4.64e-06
  1.7129e+04   4.04e-06
  1.7781e+04   3.50e-06
  1.8457e+04   3.05e-06
  1.9159e+04   2.64e-06
  1.9888e+04   2.26e-06
  2.0645e+04   1.95e-06
  2.1430e+04   1.67e-06
  2.2245e+04   1.41e-06
  2.3092e+04   1.19e-06
  2.3970e+04   9.99e-07
  2.4882e+04   8.21e-07
  2.5829e+04   6.74e-07
  2.6811e+04   5.41e-07
  2.7831e+04   4.24e-07
  2.8890e+04   3.27e-07
  2.9989e+04   2.43e-07
  3.1130e+04   1.74e-07
  3.2314e+04   1.20e-07
  3.3544e+04   7.83e-08
  3.4820e+04   4.72e-08
  3.6144e+04   2.65e-08
  3.7519e+04   1.34e-08
  3.8947e+04   5.79e-09
  4.0428e+04   2.20e-09
  4.1966e+04   6.74e-10
  4.3563e+04   1.51e-10
  4.5220e+04   2.65e-11
  4.6941e+04   2.99e-12
  4.8726e+04   1.67e-13
  5.0580e+04   4.16e-15
