#  E [MeV]   Flux [# cm^{-2} s^{-1}  MeV^{-1}]
  3.0000e+04   1.75e-19
  3.0943e+04   1.68e-19
  3.1916e+04   1.61e-19
  3.2920e+04   1.55e-19
  3.3955e+04   1.49e-19
  3.5023e+04   1.43e-19
  3.6124e+04   1.37e-19
  3.7260e+04   1.32e-19
  3.8432e+04   1.26e-19
  3.9640e+04   1.21e-19
  4.0887e+04   1.16e-19
  4.2172e+04   1.12e-19
  4.3499e+04   1.07e-19
  4.4866e+04   1.03e-19
  4.6277e+04   9.85e-20
  4.7732e+04   9.44e-20
  4.9233e+04   9.05e-20
  5.0781e+04   8.67e-20
  5.2378e+04   8.31e-20
  5.4025e+04   7.96e-20
  5.5724e+04   7.63e-20
  5.7476e+04   7.30e-20
  5.9284e+04   6.99e-20
  6.1148e+04   6.69e-20
  6.3071e+04   6.41e-20
  6.5054e+04   6.13e-20
  6.7100e+04   5.87e-20
  6.9210e+04   5.61e-20
  7.1386e+04   5.37e-20
  7.3631e+04   5.13e-20
  7.5946e+04   4.90e-20
  7.8334e+04   4.69e-20
  8.0797e+04   4.48e-20
  8.3338e+04   4.28e-20
  8.5959e+04   4.09e-20
  8.8662e+04   3.90e-20
  9.1450e+04   3.72e-20
  9.4325e+04   3.55e-20
  9.7291e+04   3.39e-20
  1.0035e+05   3.23e-20
  1.0351e+05   3.08e-20
  1.0676e+05   2.94e-20
  1.1012e+05   2.80e-20
  1.1358e+05   2.66e-20
  1.1715e+05   2.54e-20
  1.2084e+05   2.42e-20
  1.2464e+05   2.30e-20
  1.2856e+05   2.19e-20
  1.3260e+05   2.08e-20
  1.3677e+05   1.98e-20
  1.4107e+05   1.88e-20
  1.4550e+05   1.79e-20
  1.5008e+05   1.70e-20
  1.5480e+05   1.61e-20
  1.5967e+05   1.53e-20
  1.6469e+05   1.45e-20
  1.6987e+05   1.38e-20
  1.7521e+05   1.31e-20
  1.8072e+05   1.24e-20
  1.8640e+05   1.17e-20
  1.9226e+05   1.11e-20
  1.9831e+05   1.05e-20
  2.0454e+05   9.97e-21
  2.1097e+05   9.44e-21
  2.1761e+05   8.93e-21
  2.2445e+05   8.45e-21
  2.3151e+05   7.99e-21
  2.3879e+05   7.55e-21
  2.4630e+05   7.13e-21
  2.5404e+05   6.74e-21
  2.6203e+05   6.36e-21
  2.7027e+05   6.00e-21
  2.7877e+05   5.66e-21
  2.8753e+05   5.34e-21
  2.9657e+05   5.03e-21
  3.0590e+05   4.74e-21
  3.1552e+05   4.46e-21
  3.2544e+05   4.20e-21
  3.3567e+05   3.95e-21
  3.4623e+05   3.71e-21
  3.5712e+05   3.49e-21
  3.6835e+05   3.28e-21
  3.7993e+05   3.07e-21
  3.9188e+05   2.88e-21
  4.0420e+05   2.70e-21
  4.1691e+05   2.53e-21
  4.3002e+05   2.37e-21
  4.4354e+05   2.22e-21
  4.5749e+05   2.07e-21
  4.7187e+05   1.94e-21
  4.8671e+05   1.81e-21
  5.0202e+05   1.69e-21
  5.1780e+05   1.58e-21
  5.3409e+05   1.47e-21
  5.5088e+05   1.37e-21
  5.6820e+05   1.28e-21
  5.8607e+05   1.19e-21
  6.0450e+05   1.10e-21
  6.2351e+05   1.03e-21
  6.4311e+05   9.53e-22
  6.6334e+05   8.85e-22
  6.8419e+05   8.20e-22
  7.0571e+05   7.60e-22
  7.2790e+05   7.04e-22
  7.5079e+05   6.52e-22
  7.7440e+05   6.01e-22
  7.9875e+05   5.56e-22
  8.2387e+05   5.14e-22
  8.4977e+05   4.74e-22
  8.7649e+05   4.36e-22
  9.0405e+05   4.02e-22
  9.3248e+05   3.70e-22
  9.6180e+05   3.40e-22
  9.9205e+05   3.12e-22
  1.0232e+06   2.87e-22
  1.0554e+06   2.64e-22
  1.0886e+06   2.42e-22
  1.1228e+06   2.21e-22
  1.1581e+06   2.03e-22
  1.1946e+06   1.86e-22
  1.2321e+06   1.69e-22
  1.2709e+06   1.55e-22
  1.3108e+06   1.42e-22
  1.3521e+06   1.29e-22
  1.3946e+06   1.17e-22
  1.4384e+06   1.07e-22
  1.4837e+06   9.75e-23
  1.5303e+06   8.85e-23
  1.5784e+06   8.01e-23
  1.6281e+06   7.30e-23
  1.6793e+06   6.62e-23
  1.7321e+06   5.98e-23
  1.7865e+06   5.41e-23
  1.8427e+06   4.91e-23
  1.9006e+06   4.43e-23
  1.9604e+06   3.98e-23
  2.0221e+06   3.60e-23
  2.0856e+06   3.26e-23
  2.1512e+06   2.93e-23
  2.2189e+06   2.62e-23
  2.2886e+06   2.37e-23
  2.3606e+06   2.13e-23
  2.4348e+06   1.91e-23
  2.5114e+06   1.71e-23
  2.5904e+06   1.54e-23
  2.6718e+06   1.38e-23
  2.7558e+06   1.23e-23
  2.8425e+06   1.10e-23
  2.9319e+06   9.86e-24
  3.0241e+06   8.79e-24
  3.1192e+06   7.77e-24
  3.2173e+06   6.98e-24
  3.3184e+06   6.24e-24
  3.4228e+06   5.53e-24
  3.5304e+06   4.90e-24
  3.6414e+06   4.39e-24
  3.7559e+06   3.91e-24
  3.8740e+06   3.46e-24
  3.9958e+06   3.07e-24
  4.1215e+06   2.75e-24
  4.2511e+06   2.44e-24
  4.3848e+06   2.16e-24
  4.5227e+06   1.93e-24
  4.6649e+06   1.72e-24
  4.8116e+06   1.53e-24
  4.9629e+06   1.35e-24
  5.1189e+06   1.21e-24
  5.2799e+06   1.08e-24
  5.4459e+06   9.63e-25
  5.6171e+06   8.58e-25
  5.7938e+06   7.74e-25
  5.9760e+06   6.96e-25
  6.1639e+06   6.21e-25
  6.3577e+06   5.60e-25
  6.5576e+06   5.08e-25
  6.7638e+06   4.59e-25
  6.9765e+06   4.13e-25
  7.1959e+06   3.77e-25
  7.4222e+06   3.43e-25
  7.6556e+06   3.11e-25
  7.8963e+06   2.82e-25
  8.1446e+06   2.59e-25
  8.4007e+06   2.37e-25
  8.6649e+06   2.15e-25
  8.9373e+06   1.97e-25
  9.2184e+06   1.81e-25
  9.5082e+06   1.66e-25
  9.8072e+06   1.52e-25
  1.0116e+07   1.40e-25
  1.0434e+07   1.28e-25
  1.0762e+07   1.18e-25
  1.1100e+07   1.08e-25
  1.1449e+07   9.84e-26
  1.1809e+07   8.97e-26
  1.2181e+07   8.16e-26
  1.2564e+07   7.39e-26
  1.2959e+07   6.65e-26
  1.3366e+07   5.96e-26
  1.3786e+07   5.32e-26
  1.4220e+07   4.79e-26
