#  E [GeV]   # per interaction  [GeV^{-1}]
  3.0000e+01   2.34e-02
  3.1051e+01   2.25e-02
  3.2139e+01   2.17e-02
  3.3266e+01   2.09e-02
  3.4432e+01   2.01e-02
  3.5638e+01   1.94e-02
  3.6887e+01   1.86e-02
  3.8180e+01   1.79e-02
  3.9518e+01   1.72e-02
  4.0903e+01   1.66e-02
  4.2336e+01   1.60e-02
  4.3820e+01   1.53e-02
  4.5355e+01   1.47e-02
  4.6945e+01   1.42e-02
  4.8590e+01   1.36e-02
  5.0293e+01   1.31e-02
  5.2055e+01   1.26e-02
  5.3879e+01   1.21e-02
  5.5767e+01   1.16e-02
  5.7722e+01   1.11e-02
  5.9745e+01   1.07e-02
  6.1838e+01   1.03e-02
  6.4005e+01   9.87e-03
  6.6248e+01   9.47e-03
  6.8570e+01   9.09e-03
  7.0973e+01   8.72e-03
  7.3460e+01   8.37e-03
  7.6034e+01   8.03e-03
  7.8699e+01   7.70e-03
  8.1457e+01   7.39e-03
  8.4311e+01   7.09e-03
  8.7266e+01   6.79e-03
  9.0324e+01   6.52e-03
  9.3490e+01   6.25e-03
  9.6766e+01   5.99e-03
  1.0016e+02   5.74e-03
  1.0367e+02   5.51e-03
  1.0730e+02   5.28e-03
  1.1106e+02   5.06e-03
  1.1495e+02   4.85e-03
  1.1898e+02   4.65e-03
  1.2315e+02   4.45e-03
  1.2747e+02   4.27e-03
  1.3193e+02   4.09e-03
  1.3656e+02   3.92e-03
  1.4134e+02   3.76e-03
  1.4629e+02   3.60e-03
  1.5142e+02   3.45e-03
  1.5673e+02   3.31e-03
  1.6222e+02   3.17e-03
  1.6790e+02   3.04e-03
  1.7379e+02   2.91e-03
  1.7988e+02   2.79e-03
  1.8618e+02   2.67e-03
  1.9271e+02   2.56e-03
  1.9946e+02   2.46e-03
  2.0645e+02   2.35e-03
  2.1369e+02   2.26e-03
  2.2117e+02   2.16e-03
  2.2892e+02   2.07e-03
  2.3695e+02   1.99e-03
  2.4525e+02   1.91e-03
  2.5385e+02   1.83e-03
  2.6274e+02   1.75e-03
  2.7195e+02   1.68e-03
  2.8148e+02   1.61e-03
  2.9134e+02   1.55e-03
  3.0155e+02   1.48e-03
  3.1212e+02   1.42e-03
  3.2306e+02   1.36e-03
  3.3438e+02   1.31e-03
  3.4610e+02   1.26e-03
  3.5823e+02   1.20e-03
  3.7078e+02   1.16e-03
  3.8377e+02   1.11e-03
  3.9722e+02   1.06e-03
  4.1114e+02   1.02e-03
  4.2555e+02   9.78e-04
  4.4046e+02   9.39e-04
  4.5590e+02   9.01e-04
  4.7188e+02   8.64e-04
  4.8841e+02   8.29e-04
  5.0553e+02   7.96e-04
  5.2324e+02   7.64e-04
  5.4158e+02   7.33e-04
  5.6056e+02   7.04e-04
  5.8020e+02   6.75e-04
  6.0054e+02   6.48e-04
  6.2158e+02   6.22e-04
  6.4337e+02   5.97e-04
  6.6591e+02   5.73e-04
  6.8925e+02   5.51e-04
  7.1340e+02   5.29e-04
  7.3840e+02   5.08e-04
  7.6428e+02   4.88e-04
  7.9106e+02   4.69e-04
  8.1878e+02   4.51e-04
  8.4748e+02   4.33e-04
  8.7718e+02   4.17e-04
  9.0792e+02   4.01e-04
  9.3973e+02   3.86e-04
  9.7267e+02   3.71e-04
  1.0068e+03   3.57e-04
  1.0420e+03   3.44e-04
  1.0785e+03   3.31e-04
  1.1163e+03   3.19e-04
  1.1555e+03   3.08e-04
  1.1960e+03   2.97e-04
  1.2379e+03   2.86e-04
  1.2813e+03   2.76e-04
  1.3262e+03   2.66e-04
  1.3726e+03   2.57e-04
  1.4207e+03   2.48e-04
  1.4705e+03   2.40e-04
  1.5220e+03   2.31e-04
  1.5754e+03   2.23e-04
  1.6306e+03   2.16e-04
  1.6877e+03   2.09e-04
  1.7469e+03   2.01e-04
  1.8081e+03   1.95e-04
  1.8715e+03   1.88e-04
  1.9370e+03   1.82e-04
  2.0049e+03   1.75e-04
  2.0752e+03   1.69e-04
  2.1479e+03   1.63e-04
  2.2232e+03   1.58e-04
  2.3011e+03   1.52e-04
  2.3817e+03   1.47e-04
  2.4652e+03   1.42e-04
  2.5516e+03   1.36e-04
  2.6410e+03   1.31e-04
  2.7336e+03   1.26e-04
  2.8294e+03   1.22e-04
  2.9285e+03   1.17e-04
  3.0311e+03   1.12e-04
  3.1374e+03   1.08e-04
  3.2473e+03   1.03e-04
  3.3611e+03   9.91e-05
  3.4789e+03   9.48e-05
  3.6008e+03   9.06e-05
  3.7270e+03   8.66e-05
  3.8576e+03   8.26e-05
  3.9928e+03   7.86e-05
  4.1327e+03   7.48e-05
  4.2775e+03   7.10e-05
  4.4274e+03   6.73e-05
  4.5826e+03   6.37e-05
  4.7432e+03   6.02e-05
  4.9094e+03   5.67e-05
  5.0815e+03   5.33e-05
  5.2595e+03   5.01e-05
  5.4438e+03   4.69e-05
  5.6346e+03   4.38e-05
  5.8321e+03   4.08e-05
  6.0365e+03   3.79e-05
  6.2480e+03   3.51e-05
  6.4670e+03   3.24e-05
  6.6936e+03   2.98e-05
  6.9282e+03   2.73e-05
  7.1709e+03   2.49e-05
  7.4222e+03   2.27e-05
  7.6823e+03   2.06e-05
  7.9516e+03   1.86e-05
  8.2302e+03   1.67e-05
  8.5186e+03   1.49e-05
  8.8172e+03   1.32e-05
  9.1262e+03   1.17e-05
  9.4460e+03   1.03e-05
  9.7770e+03   8.97e-06
  1.0120e+04   7.77e-06
  1.0474e+04   6.68e-06
  1.0841e+04   5.69e-06
  1.1221e+04   4.80e-06
  1.1614e+04   4.01e-06
  1.2022e+04   3.31e-06
  1.2443e+04   2.70e-06
  1.2879e+04   2.18e-06
  1.3330e+04   1.73e-06
  1.3797e+04   1.36e-06
  1.4281e+04   1.05e-06
  1.4781e+04   7.95e-07
  1.5299e+04   5.90e-07
  1.5835e+04   4.31e-07
  1.6390e+04   3.07e-07
  1.6965e+04   2.12e-07
  1.7559e+04   1.43e-07
  1.8175e+04   9.33e-08
  1.8812e+04   5.84e-08
  1.9471e+04   3.54e-08
  2.0153e+04   2.05e-08
  2.0859e+04   1.13e-08
  2.1590e+04   5.84e-09
  2.2347e+04   2.89e-09
  2.3130e+04   1.32e-09
  2.3941e+04   5.50e-10
  2.4780e+04   2.16e-10
  2.5648e+04   7.55e-11
  2.6547e+04   2.31e-11
  2.7477e+04   6.28e-12
  2.8440e+04   1.47e-12
