#  E [MeV]   Flux [# cm^{-2} s^{-1}  MeV^{-1}]
  3.0000e+04   1.74e-21
  3.1123e+04   1.67e-21
  3.2288e+04   1.61e-21
  3.3497e+04   1.55e-21
  3.4751e+04   1.49e-21
  3.6051e+04   1.43e-21
  3.7401e+04   1.38e-21
  3.8801e+04   1.32e-21
  4.0253e+04   1.27e-21
  4.1760e+04   1.22e-21
  4.3324e+04   1.17e-21
  4.4945e+04   1.13e-21
  4.6628e+04   1.08e-21
  4.8373e+04   1.04e-21
  5.0184e+04   9.99e-22
  5.2063e+04   9.59e-22
  5.4011e+04   9.21e-22
  5.6033e+04   8.84e-22
  5.8131e+04   8.48e-22
  6.0307e+04   8.13e-22
  6.2564e+04   7.80e-22
  6.4906e+04   7.48e-22
  6.7336e+04   7.17e-22
  6.9857e+04   6.88e-22
  7.2472e+04   6.59e-22
  7.5184e+04   6.31e-22
  7.7999e+04   6.05e-22
  8.0919e+04   5.79e-22
  8.3948e+04   5.55e-22
  8.7090e+04   5.31e-22
  9.0350e+04   5.08e-22
  9.3732e+04   4.87e-22
  9.7241e+04   4.66e-22
  1.0088e+05   4.45e-22
  1.0466e+05   4.26e-22
  1.0858e+05   4.08e-22
  1.1264e+05   3.90e-22
  1.1686e+05   3.73e-22
  1.2123e+05   3.56e-22
  1.2577e+05   3.40e-22
  1.3048e+05   3.25e-22
  1.3536e+05   3.11e-22
  1.4043e+05   2.97e-22
  1.4568e+05   2.84e-22
  1.5114e+05   2.71e-22
  1.5680e+05   2.59e-22
  1.6266e+05   2.47e-22
  1.6875e+05   2.36e-22
  1.7507e+05   2.25e-22
  1.8162e+05   2.15e-22
  1.8842e+05   2.05e-22
  1.9548e+05   1.96e-22
  2.0279e+05   1.87e-22
  2.1039e+05   1.78e-22
  2.1826e+05   1.70e-22
  2.2643e+05   1.62e-22
  2.3491e+05   1.54e-22
  2.4370e+05   1.47e-22
  2.5282e+05   1.40e-22
  2.6229e+05   1.34e-22
  2.7211e+05   1.28e-22
  2.8229e+05   1.22e-22
  2.9286e+05   1.16e-22
  3.0382e+05   1.11e-22
  3.1519e+05   1.06e-22
  3.2699e+05   1.01e-22
  3.3923e+05   9.60e-23
  3.5193e+05   9.16e-23
  3.6511e+05   8.73e-23
  3.7877e+05   8.33e-23
  3.9295e+05   7.94e-23
  4.0766e+05   7.58e-23
  4.2292e+05   7.22e-23
  4.3875e+05   6.89e-23
  4.5518e+05   6.58e-23
  4.7222e+05   6.27e-23
  4.8989e+05   5.98e-23
  5.0823e+05   5.71e-23
  5.2726e+05   5.45e-23
  5.4699e+05   5.20e-23
  5.6747e+05   4.97e-23
  5.8871e+05   4.75e-23
  6.1075e+05   4.54e-23
  6.3361e+05   4.34e-23
  6.5733e+05   4.15e-23
  6.8194e+05   3.97e-23
  7.0746e+05   3.80e-23
  7.3395e+05   3.64e-23
  7.6142e+05   3.48e-23
  7.8992e+05   3.34e-23
  8.1949e+05   3.20e-23
  8.5017e+05   3.07e-23
  8.8199e+05   2.94e-23
  9.1501e+05   2.83e-23
  9.4926e+05   2.71e-23
  9.8479e+05   2.61e-23
  1.0217e+06   2.51e-23
  1.0599e+06   2.41e-23
  1.0996e+06   2.32e-23
  1.1407e+06   2.23e-23
  1.1834e+06   2.15e-23
  1.2277e+06   2.07e-23
  1.2737e+06   2.00e-23
  1.3214e+06   1.92e-23
  1.3708e+06   1.86e-23
  1.4222e+06   1.79e-23
  1.4754e+06   1.73e-23
  1.5306e+06   1.67e-23
  1.5879e+06   1.61e-23
  1.6474e+06   1.56e-23
  1.7090e+06   1.51e-23
  1.7730e+06   1.46e-23
  1.8394e+06   1.41e-23
  1.9082e+06   1.37e-23
  1.9797e+06   1.32e-23
  2.0538e+06   1.28e-23
  2.1306e+06   1.24e-23
  2.2104e+06   1.20e-23
  2.2931e+06   1.16e-23
  2.3790e+06   1.12e-23
  2.4680e+06   1.09e-23
  2.5604e+06   1.05e-23
  2.6563e+06   1.02e-23
  2.7557e+06   9.86e-24
  2.8589e+06   9.53e-24
  2.9659e+06   9.21e-24
  3.0769e+06   8.90e-24
  3.1921e+06   8.59e-24
  3.3116e+06   8.29e-24
  3.4355e+06   8.00e-24
  3.5641e+06   7.70e-24
  3.6976e+06   7.42e-24
  3.8360e+06   7.14e-24
  3.9796e+06   6.87e-24
  4.1285e+06   6.60e-24
  4.2831e+06   6.34e-24
  4.4434e+06   6.07e-24
  4.6097e+06   5.81e-24
  4.7823e+06   5.56e-24
  4.9613e+06   5.31e-24
  5.1470e+06   5.06e-24
  5.3397e+06   4.82e-24
  5.5396e+06   4.58e-24
  5.7470e+06   4.35e-24
  5.9621e+06   4.12e-24
  6.1853e+06   3.90e-24
  6.4168e+06   3.67e-24
  6.6570e+06   3.46e-24
  6.9062e+06   3.25e-24
  7.1647e+06   3.04e-24
  7.4329e+06   2.84e-24
  7.7112e+06   2.65e-24
  7.9998e+06   2.46e-24
  8.2993e+06   2.27e-24
  8.6100e+06   2.10e-24
  8.9323e+06   1.93e-24
  9.2666e+06   1.76e-24
  9.6135e+06   1.60e-24
  9.9734e+06   1.45e-24
  1.0347e+07   1.31e-24
  1.0734e+07   1.17e-24
  1.1136e+07   1.05e-24
  1.1553e+07   9.24e-25
  1.1985e+07   8.13e-25
  1.2434e+07   7.08e-25
  1.2899e+07   6.12e-25
  1.3382e+07   5.24e-25
  1.3883e+07   4.44e-25
  1.4403e+07   3.72e-25
  1.4942e+07   3.08e-25
  1.5501e+07   2.51e-25
  1.6081e+07   2.02e-25
  1.6683e+07   1.59e-25
  1.7308e+07   1.23e-25
  1.7956e+07   9.32e-26
  1.8628e+07   6.88e-26
  1.9325e+07   4.94e-26
  2.0049e+07   3.44e-26
  2.0799e+07   2.31e-26
  2.1578e+07   1.49e-26
  2.2386e+07   9.16e-27
  2.3224e+07   5.34e-27
  2.4093e+07   2.92e-27
  2.4995e+07   1.50e-27
  2.5930e+07   7.05e-28
  2.6901e+07   3.00e-28
  2.7908e+07   1.14e-28
  2.8953e+07   3.81e-29
  3.0037e+07   1.07e-29
  3.1161e+07   2.50e-30
  3.2327e+07   4.66e-31
  3.3537e+07   6.51e-32
  3.4793e+07   6.49e-33
  3.6095e+07   4.34e-34
  3.7446e+07   1.73e-35
  3.8848e+07   3.65e-37
  4.0302e+07   3.59e-39
  4.1811e+07   1.29e-41
  4.3376e+07   1.31e-44
  4.5000e+07   2.80e-48
