#  E [GeV]   # per interaction  [GeV^{-1}]
  3.0000e+01   1.12e+00
  3.1141e+01   1.07e+00
  3.2326e+01   1.02e+00
  3.3556e+01   9.76e-01
  3.4832e+01   9.32e-01
  3.6157e+01   8.90e-01
  3.7533e+01   8.49e-01
  3.8961e+01   8.11e-01
  4.0443e+01   7.74e-01
  4.1982e+01   7.38e-01
  4.3579e+01   7.04e-01
  4.5237e+01   6.72e-01
  4.6958e+01   6.41e-01
  4.8744e+01   6.11e-01
  5.0598e+01   5.82e-01
  5.2523e+01   5.55e-01
  5.4521e+01   5.29e-01
  5.6596e+01   5.04e-01
  5.8749e+01   4.81e-01
  6.0984e+01   4.58e-01
  6.3304e+01   4.36e-01
  6.5712e+01   4.15e-01
  6.8212e+01   3.96e-01
  7.0807e+01   3.77e-01
  7.3500e+01   3.59e-01
  7.6297e+01   3.41e-01
  7.9199e+01   3.25e-01
  8.2212e+01   3.09e-01
  8.5340e+01   2.94e-01
  8.8586e+01   2.80e-01
  9.1956e+01   2.66e-01
  9.5455e+01   2.53e-01
  9.9086e+01   2.40e-01
  1.0286e+02   2.28e-01
  1.0677e+02   2.17e-01
  1.1083e+02   2.06e-01
  1.1505e+02   1.96e-01
  1.1942e+02   1.86e-01
  1.2397e+02   1.77e-01
  1.2868e+02   1.68e-01
  1.3358e+02   1.59e-01
  1.3866e+02   1.51e-01
  1.4394e+02   1.44e-01
  1.4941e+02   1.36e-01
  1.5509e+02   1.29e-01
  1.6100e+02   1.22e-01
  1.6712e+02   1.16e-01
  1.7348e+02   1.10e-01
  1.8008e+02   1.04e-01
  1.8693e+02   9.87e-02
  1.9404e+02   9.35e-02
  2.0142e+02   8.85e-02
  2.0908e+02   8.38e-02
  2.1704e+02   7.93e-02
  2.2529e+02   7.50e-02
  2.3387e+02   7.09e-02
  2.4276e+02   6.70e-02
  2.5200e+02   6.33e-02
  2.6158e+02   5.98e-02
  2.7154e+02   5.64e-02
  2.8187e+02   5.32e-02
  2.9259e+02   5.02e-02
  3.0372e+02   4.73e-02
  3.1527e+02   4.46e-02
  3.2727e+02   4.20e-02
  3.3972e+02   3.95e-02
  3.5264e+02   3.72e-02
  3.6606e+02   3.50e-02
  3.7998e+02   3.28e-02
  3.9444e+02   3.08e-02
  4.0945e+02   2.89e-02
  4.2502e+02   2.71e-02
  4.4119e+02   2.54e-02
  4.5798e+02   2.38e-02
  4.7540e+02   2.23e-02
  4.9348e+02   2.08e-02
  5.1226e+02   1.95e-02
  5.3175e+02   1.82e-02
  5.5198e+02   1.69e-02
  5.7297e+02   1.58e-02
  5.9477e+02   1.47e-02
  6.1740e+02   1.37e-02
  6.4089e+02   1.27e-02
  6.6527e+02   1.18e-02
  6.9058e+02   1.10e-02
  7.1685e+02   1.02e-02
  7.4412e+02   9.46e-03
  7.7243e+02   8.77e-03
  8.0181e+02   8.14e-03
  8.3232e+02   7.54e-03
  8.6398e+02   6.99e-03
  8.9685e+02   6.48e-03
  9.3097e+02   6.00e-03
  9.6638e+02   5.56e-03
  1.0031e+03   5.15e-03
  1.0413e+03   4.77e-03
  1.0809e+03   4.41e-03
  1.1220e+03   4.09e-03
  1.1647e+03   3.78e-03
  1.2090e+03   3.49e-03
  1.2550e+03   3.23e-03
  1.3028e+03   2.98e-03
  1.3523e+03   2.75e-03
  1.4038e+03   2.54e-03
  1.4572e+03   2.35e-03
  1.5126e+03   2.16e-03
  1.5702e+03   1.99e-03
  1.6299e+03   1.84e-03
  1.6919e+03   1.69e-03
  1.7563e+03   1.56e-03
  1.8231e+03   1.43e-03
  1.8925e+03   1.32e-03
  1.9645e+03   1.21e-03
  2.0392e+03   1.11e-03
  2.1168e+03   1.02e-03
  2.1973e+03   9.34e-04
  2.2809e+03   8.56e-04
  2.3677e+03   7.83e-04
  2.4577e+03   7.15e-04
  2.5512e+03   6.54e-04
  2.6483e+03   5.96e-04
  2.7490e+03   5.42e-04
  2.8536e+03   4.94e-04
  2.9622e+03   4.49e-04
  3.0749e+03   4.06e-04
  3.1918e+03   3.69e-04
  3.3133e+03   3.34e-04
  3.4393e+03   3.01e-04
  3.5702e+03   2.72e-04
  3.7060e+03   2.45e-04
  3.8470e+03   2.19e-04
  3.9933e+03   1.97e-04
  4.1452e+03   1.77e-04
  4.3029e+03   1.57e-04
  4.4666e+03   1.41e-04
  4.6366e+03   1.25e-04
  4.8129e+03   1.11e-04
  4.9960e+03   9.85e-05
  5.1861e+03   8.70e-05
  5.3834e+03   7.63e-05
  5.5882e+03   6.72e-05
  5.8008e+03   5.89e-05
  6.0215e+03   5.12e-05
  6.2506e+03   4.47e-05
  6.4883e+03   3.88e-05
  6.7352e+03   3.35e-05
  6.9914e+03   2.89e-05
  7.2574e+03   2.49e-05
  7.5335e+03   2.12e-05
  7.8201e+03   1.81e-05
  8.1176e+03   1.54e-05
  8.4264e+03   1.30e-05
  8.7470e+03   1.09e-05
  9.0797e+03   9.17e-06
  9.4251e+03   7.62e-06
  9.7837e+03   6.28e-06
  1.0156e+04   5.20e-06
  1.0542e+04   4.24e-06
  1.0943e+04   3.42e-06
  1.1360e+04   2.78e-06
  1.1792e+04   2.22e-06
  1.2240e+04   1.75e-06
  1.2706e+04   1.39e-06
  1.3189e+04   1.08e-06
  1.3691e+04   8.23e-07
  1.4212e+04   6.34e-07
  1.4753e+04   4.76e-07
  1.5314e+04   3.48e-07
  1.5897e+04   2.57e-07
  1.6501e+04   1.84e-07
  1.7129e+04   1.28e-07
  1.7781e+04   8.87e-08
  1.8457e+04   5.97e-08
  1.9159e+04   3.84e-08
  1.9888e+04   2.45e-08
  2.0645e+04   1.50e-08
  2.1430e+04   8.66e-09
  2.2245e+04   4.86e-09
  2.3092e+04   2.58e-09
  2.3970e+04   1.27e-09
  2.4882e+04   5.86e-10
  2.5829e+04   2.49e-10
  2.6811e+04   9.37e-11
  2.7831e+04   3.14e-11
  2.8890e+04   9.14e-12
  2.9989e+04   2.20e-12
  3.1130e+04   4.27e-13
  3.2314e+04   6.45e-14
  3.3544e+04   7.01e-15
  3.4820e+04   5.14e-16
  3.6144e+04   2.33e-17
  3.7519e+04   5.74e-19
  3.8947e+04   6.62e-21
  4.0428e+04   2.96e-23
  4.1966e+04   3.95e-26
  4.3563e+04   1.13e-29
  4.5220e+04   4.42e-34
  4.6941e+04   1.32e-39
  4.8726e+04   1.37e-46
  5.0580e+04   4.62e-48
