#  E [MeV]   Flux [# cm^{-2} s^{-1}  MeV^{-1}]
  3.0000e+04   1.17e-19
  3.0501e+04   1.13e-19
  3.1010e+04   1.09e-19
  3.1528e+04   1.05e-19
  3.2055e+04   1.01e-19
  3.2590e+04   9.77e-20
  3.3134e+04   9.42e-20
  3.3688e+04   9.08e-20
  3.4250e+04   8.75e-20
  3.4822e+04   8.43e-20
  3.5404e+04   8.13e-20
  3.5995e+04   7.84e-20
  3.6596e+04   7.55e-20
  3.7207e+04   7.27e-20
  3.7829e+04   6.99e-20
  3.8460e+04   6.73e-20
  3.9103e+04   6.48e-20
  3.9756e+04   6.23e-20
  4.0420e+04   6.00e-20
  4.1095e+04   5.77e-20
  4.1781e+04   5.54e-20
  4.2479e+04   5.32e-20
  4.3188e+04   5.11e-20
  4.3909e+04   4.92e-20
  4.4642e+04   4.73e-20
  4.5388e+04   4.54e-20
  4.6146e+04   4.36e-20
  4.6917e+04   4.18e-20
  4.7700e+04   4.01e-20
  4.8497e+04   3.84e-20
  4.9307e+04   3.69e-20
  5.0130e+04   3.54e-20
  5.0967e+04   3.40e-20
  5.1818e+04   3.26e-20
  5.2684e+04   3.12e-20
  5.3563e+04   2.99e-20
  5.4458e+04   2.86e-20
  5.5367e+04   2.74e-20
  5.6292e+04   2.63e-20
  5.7232e+04   2.52e-20
  5.8188e+04   2.41e-20
  5.9160e+04   2.30e-20
  6.0148e+04   2.20e-20
  6.1152e+04   2.10e-20
  6.2173e+04   2.01e-20
  6.3212e+04   1.93e-20
  6.4267e+04   1.84e-20
  6.5340e+04   1.76e-20
  6.6432e+04   1.68e-20
  6.7541e+04   1.60e-20
  6.8669e+04   1.53e-20
  6.9816e+04   1.46e-20
  7.0982e+04   1.40e-20
  7.2167e+04   1.33e-20
  7.3372e+04   1.27e-20
  7.4598e+04   1.21e-20
  7.5843e+04   1.15e-20
  7.7110e+04   1.10e-20
  7.8398e+04   1.05e-20
  7.9707e+04   9.98e-21
  8.1038e+04   9.51e-21
  8.2391e+04   9.05e-21
  8.3767e+04   8.60e-21
  8.5166e+04   8.16e-21
  8.6588e+04   7.75e-21
  8.8034e+04   7.39e-21
  8.9505e+04   7.03e-21
  9.0999e+04   6.68e-21
  9.2519e+04   6.35e-21
  9.4064e+04   6.02e-21
  9.5635e+04   5.70e-21
  9.7232e+04   5.40e-21
  9.8856e+04   5.14e-21
  1.0051e+05   4.88e-21
  1.0219e+05   4.63e-21
  1.0389e+05   4.39e-21
  1.0563e+05   4.15e-21
  1.0739e+05   3.93e-21
  1.0918e+05   3.71e-21
  1.1101e+05   3.53e-21
  1.1286e+05   3.34e-21
  1.1475e+05   3.17e-21
  1.1666e+05   3.00e-21
  1.1861e+05   2.83e-21
  1.2059e+05   2.67e-21
  1.2260e+05   2.52e-21
  1.2465e+05   2.39e-21
  1.2673e+05   2.26e-21
  1.2885e+05   2.13e-21
  1.3100e+05   2.01e-21
  1.3319e+05   1.90e-21
  1.3541e+05   1.78e-21
  1.3768e+05   1.68e-21
  1.3997e+05   1.59e-21
  1.4231e+05   1.50e-21
  1.4469e+05   1.42e-21
  1.4711e+05   1.33e-21
  1.4956e+05   1.25e-21
  1.5206e+05   1.17e-21
  1.5460e+05   1.10e-21
  1.5718e+05   1.04e-21
  1.5981e+05   9.82e-22
  1.6247e+05   9.23e-22
  1.6519e+05   8.67e-22
  1.6795e+05   8.12e-22
  1.7075e+05   7.58e-22
  1.7360e+05   7.12e-22
  1.7650e+05   6.71e-22
  1.7945e+05   6.31e-22
  1.8245e+05   5.92e-22
  1.8549e+05   5.54e-22
  1.8859e+05   5.18e-22
  1.9174e+05   4.82e-22
  1.9494e+05   4.52e-22
  1.9820e+05   4.25e-22
  2.0151e+05   3.99e-22
  2.0487e+05   3.74e-22
  2.0829e+05   3.49e-22
  2.1177e+05   3.25e-22
  2.1531e+05   3.02e-22
  2.1890e+05   2.82e-22
  2.2256e+05   2.65e-22
  2.2628e+05   2.48e-22
  2.3006e+05   2.32e-22
  2.3390e+05   2.16e-22
  2.3780e+05   2.00e-22
  2.4178e+05   1.85e-22
  2.4581e+05   1.73e-22
  2.4992e+05   1.62e-22
  2.5409e+05   1.52e-22
  2.5833e+05   1.41e-22
  2.6265e+05   1.31e-22
  2.6704e+05   1.21e-22
  2.7149e+05   1.12e-22
  2.7603e+05   1.05e-22
  2.8064e+05   9.78e-23
  2.8532e+05   9.12e-23
  2.9009e+05   8.49e-23
  2.9493e+05   7.87e-23
  2.9986e+05   7.27e-23
  3.0487e+05   6.69e-23
  3.0996e+05   6.24e-23
  3.1513e+05   5.83e-23
  3.2040e+05   5.43e-23
  3.2575e+05   5.04e-23
  3.3119e+05   4.67e-23
  3.3672e+05   4.31e-23
  3.4234e+05   3.96e-23
  3.4806e+05   3.70e-23
  3.5387e+05   3.45e-23
  3.5978e+05   3.22e-23
  3.6579e+05   2.99e-23
  3.7190e+05   2.77e-23
  3.7811e+05   2.55e-23
  3.8442e+05   2.35e-23
  3.9084e+05   2.19e-23
  3.9737e+05   2.05e-23
  4.0401e+05   1.91e-23
  4.1075e+05   1.78e-23
  4.1761e+05   1.65e-23
  4.2459e+05   1.52e-23
  4.3168e+05   1.40e-23
  4.3889e+05   1.32e-23
  4.4622e+05   1.23e-23
  4.5367e+05   1.15e-23
  4.6124e+05   1.07e-23
  4.6895e+05   9.94e-24
  4.7678e+05   9.21e-24
  4.8474e+05   8.51e-24
  4.9283e+05   7.98e-24
  5.0107e+05   7.48e-24
  5.0943e+05   6.99e-24
  5.1794e+05   6.52e-24
  5.2659e+05   6.06e-24
  5.3538e+05   5.62e-24
  5.4432e+05   5.21e-24
  5.5342e+05   4.89e-24
  5.6266e+05   4.58e-24
  5.7205e+05   4.28e-24
  5.8161e+05   3.99e-24
  5.9132e+05   3.72e-24
  6.0119e+05   3.45e-24
  6.1123e+05   3.20e-24
  6.2144e+05   2.99e-24
  6.3182e+05   2.80e-24
  6.4237e+05   2.61e-24
  6.5310e+05   2.43e-24
  6.6401e+05   2.25e-24
  6.7509e+05   2.09e-24
  6.8637e+05   1.93e-24
  6.9783e+05   1.78e-24
  7.0948e+05   1.64e-24
  7.2133e+05   1.50e-24
  7.3338e+05   1.37e-24
  7.4563e+05   1.24e-24
  7.5808e+05   1.12e-24
  7.7074e+05   1.02e-24
  7.8361e+05   9.44e-25
  7.9670e+05   8.74e-25
  8.1000e+05   8.07e-25
