#  E [MeV]   Flux [# cm^{-2} s^{-1}  MeV^{-1}]
  3.0000e+04   3.17e-19
  3.0765e+04   3.06e-19
  3.1549e+04   2.96e-19
  3.2354e+04   2.86e-19
  3.3179e+04   2.77e-19
  3.4025e+04   2.67e-19
  3.4892e+04   2.58e-19
  3.5782e+04   2.49e-19
  3.6695e+04   2.41e-19
  3.7630e+04   2.32e-19
  3.8590e+04   2.24e-19
  3.9574e+04   2.16e-19
  4.0583e+04   2.09e-19
  4.1618e+04   2.01e-19
  4.2679e+04   1.94e-19
  4.3767e+04   1.87e-19
  4.4883e+04   1.80e-19
  4.6028e+04   1.73e-19
  4.7201e+04   1.67e-19
  4.8405e+04   1.61e-19
  4.9639e+04   1.55e-19
  5.0905e+04   1.49e-19
  5.2203e+04   1.43e-19
  5.3534e+04   1.38e-19
  5.4899e+04   1.32e-19
  5.6299e+04   1.27e-19
  5.7734e+04   1.22e-19
  5.9207e+04   1.17e-19
  6.0716e+04   1.13e-19
  6.2264e+04   1.08e-19
  6.3852e+04   1.04e-19
  6.5480e+04   9.95e-20
  6.7150e+04   9.54e-20
  6.8862e+04   9.15e-20
  7.0618e+04   8.77e-20
  7.2419e+04   8.41e-20
  7.4265e+04   8.06e-20
  7.6159e+04   7.72e-20
  7.8101e+04   7.39e-20
  8.0092e+04   7.08e-20
  8.2135e+04   6.78e-20
  8.4229e+04   6.49e-20
  8.6377e+04   6.21e-20
  8.8579e+04   5.94e-20
  9.0838e+04   5.68e-20
  9.3154e+04   5.43e-20
  9.5529e+04   5.19e-20
  9.7965e+04   4.96e-20
  1.0046e+05   4.74e-20
  1.0303e+05   4.53e-20
  1.0565e+05   4.32e-20
  1.0835e+05   4.13e-20
  1.1111e+05   3.94e-20
  1.1394e+05   3.75e-20
  1.1685e+05   3.58e-20
  1.1983e+05   3.41e-20
  1.2288e+05   3.25e-20
  1.2602e+05   3.09e-20
  1.2923e+05   2.94e-20
  1.3252e+05   2.80e-20
  1.3590e+05   2.67e-20
  1.3937e+05   2.53e-20
  1.4292e+05   2.41e-20
  1.4657e+05   2.29e-20
  1.5030e+05   2.17e-20
  1.5414e+05   2.06e-20
  1.5807e+05   1.96e-20
  1.6210e+05   1.86e-20
  1.6623e+05   1.76e-20
  1.7047e+05   1.67e-20
  1.7482e+05   1.58e-20
  1.7927e+05   1.50e-20
  1.8384e+05   1.42e-20
  1.8853e+05   1.35e-20
  1.9334e+05   1.27e-20
  1.9827e+05   1.20e-20
  2.0333e+05   1.14e-20
  2.0851e+05   1.08e-20
  2.1383e+05   1.02e-20
  2.1928e+05   9.59e-21
  2.2487e+05   9.05e-21
  2.3060e+05   8.54e-21
  2.3648e+05   8.05e-21
  2.4251e+05   7.58e-21
  2.4870e+05   7.13e-21
  2.5504e+05   6.72e-21
  2.6154e+05   6.32e-21
  2.6821e+05   5.94e-21
  2.7505e+05   5.58e-21
  2.8206e+05   5.24e-21
  2.8926e+05   4.93e-21
  2.9663e+05   4.62e-21
  3.0420e+05   4.33e-21
  3.1195e+05   4.06e-21
  3.1991e+05   3.81e-21
  3.2806e+05   3.57e-21
  3.3643e+05   3.34e-21
  3.4501e+05   3.12e-21
  3.5381e+05   2.91e-21
  3.6283e+05   2.73e-21
  3.7208e+05   2.55e-21
  3.8157e+05   2.38e-21
  3.9130e+05   2.21e-21
  4.0127e+05   2.07e-21
  4.1150e+05   1.93e-21
  4.2200e+05   1.80e-21
  4.3276e+05   1.67e-21
  4.4379e+05   1.55e-21
  4.5511e+05   1.44e-21
  4.6671e+05   1.34e-21
  4.7861e+05   1.25e-21
  4.9082e+05   1.15e-21
  5.0333e+05   1.07e-21
  5.1617e+05   9.93e-22
  5.2933e+05   9.21e-22
  5.4283e+05   8.51e-22
  5.5667e+05   7.85e-22
  5.7086e+05   7.28e-22
  5.8542e+05   6.74e-22
  6.0035e+05   6.22e-22
  6.1565e+05   5.73e-22
  6.3135e+05   5.28e-22
  6.4745e+05   4.88e-22
  6.6396e+05   4.50e-22
  6.8089e+05   4.14e-22
  6.9825e+05   3.80e-22
  7.1606e+05   3.50e-22
  7.3432e+05   3.23e-22
  7.5304e+05   2.97e-22
  7.7224e+05   2.72e-22
  7.9193e+05   2.49e-22
  8.1213e+05   2.30e-22
  8.3283e+05   2.11e-22
  8.5407e+05   1.93e-22
  8.7585e+05   1.76e-22
  8.9818e+05   1.62e-22
  9.2108e+05   1.49e-22
  9.4457e+05   1.36e-22
  9.6866e+05   1.24e-22
  9.9336e+05   1.13e-22
  1.0187e+06   1.04e-22
  1.0447e+06   9.49e-23
  1.0713e+06   8.66e-23
  1.0986e+06   7.86e-23
  1.1266e+06   7.18e-23
  1.1554e+06   6.58e-23
  1.1848e+06   6.00e-23
  1.2150e+06   5.46e-23
  1.2460e+06   4.94e-23
  1.2778e+06   4.53e-23
  1.3104e+06   4.14e-23
  1.3438e+06   3.77e-23
  1.3780e+06   3.41e-23
  1.4132e+06   3.10e-23
  1.4492e+06   2.84e-23
  1.4862e+06   2.59e-23
  1.5241e+06   2.35e-23
  1.5629e+06   2.12e-23
  1.6028e+06   1.94e-23
  1.6436e+06   1.77e-23
  1.6856e+06   1.61e-23
  1.7285e+06   1.46e-23
  1.7726e+06   1.32e-23
  1.8178e+06   1.21e-23
  1.8642e+06   1.10e-23
  1.9117e+06   1.00e-23
  1.9604e+06   9.02e-24
  2.0104e+06   8.22e-24
  2.0617e+06   7.50e-24
  2.1143e+06   6.82e-24
  2.1682e+06   6.16e-24
  2.2235e+06   5.56e-24
  2.2802e+06   5.09e-24
  2.3383e+06   4.65e-24
  2.3979e+06   4.23e-24
  2.4591e+06   3.82e-24
  2.5218e+06   3.49e-24
  2.5861e+06   3.21e-24
  2.6520e+06   2.95e-24
  2.7196e+06   2.69e-24
  2.7890e+06   2.45e-24
  2.8601e+06   2.29e-24
  2.9330e+06   2.13e-24
  3.0078e+06   1.99e-24
  3.0845e+06   1.84e-24
  3.1632e+06   1.73e-24
  3.2438e+06   1.64e-24
  3.3265e+06   1.55e-24
  3.4113e+06   1.46e-24
  3.4983e+06   1.38e-24
  3.5875e+06   1.33e-24
  3.6790e+06   1.27e-24
  3.7728e+06   1.22e-24
  3.8690e+06   1.17e-24
  3.9677e+06   1.13e-24
  4.0689e+06   1.10e-24
  4.1726e+06   1.07e-24
  4.2790e+06   1.04e-24
  4.3881e+06   1.01e-24
  4.5000e+06   9.80e-25
