#  E [GeV]   # per interaction  [GeV^{-1}]
  3.0000e+01   5.60e-01
  3.1141e+01   5.38e-01
  3.2326e+01   5.16e-01
  3.3556e+01   4.96e-01
  3.4832e+01   4.76e-01
  3.6157e+01   4.57e-01
  3.7533e+01   4.39e-01
  3.8961e+01   4.21e-01
  4.0443e+01   4.04e-01
  4.1982e+01   3.88e-01
  4.3579e+01   3.72e-01
  4.5237e+01   3.57e-01
  4.6958e+01   3.43e-01
  4.8744e+01   3.29e-01
  5.0598e+01   3.16e-01
  5.2523e+01   3.03e-01
  5.4521e+01   2.90e-01
  5.6596e+01   2.79e-01
  5.8749e+01   2.67e-01
  6.0984e+01   2.56e-01
  6.3304e+01   2.46e-01
  6.5712e+01   2.35e-01
  6.8212e+01   2.26e-01
  7.0807e+01   2.16e-01
  7.3500e+01   2.07e-01
  7.6297e+01   1.99e-01
  7.9199e+01   1.90e-01
  8.2212e+01   1.82e-01
  8.5340e+01   1.75e-01
  8.8586e+01   1.67e-01
  9.1956e+01   1.60e-01
  9.5455e+01   1.53e-01
  9.9086e+01   1.47e-01
  1.0286e+02   1.41e-01
  1.0677e+02   1.35e-01
  1.1083e+02   1.29e-01
  1.1505e+02   1.23e-01
  1.1942e+02   1.18e-01
  1.2397e+02   1.13e-01
  1.2868e+02   1.08e-01
  1.3358e+02   1.03e-01
  1.3866e+02   9.85e-02
  1.4394e+02   9.41e-02
  1.4941e+02   8.99e-02
  1.5509e+02   8.58e-02
  1.6100e+02   8.19e-02
  1.6712e+02   7.82e-02
  1.7348e+02   7.46e-02
  1.8008e+02   7.12e-02
  1.8693e+02   6.79e-02
  1.9404e+02   6.47e-02
  2.0142e+02   6.17e-02
  2.0908e+02   5.88e-02
  2.1704e+02   5.60e-02
  2.2529e+02   5.33e-02
  2.3387e+02   5.07e-02
  2.4276e+02   4.83e-02
  2.5200e+02   4.59e-02
  2.6158e+02   4.37e-02
  2.7154e+02   4.15e-02
  2.8187e+02   3.95e-02
  2.9259e+02   3.75e-02
  3.0372e+02   3.56e-02
  3.1527e+02   3.38e-02
  3.2727e+02   3.20e-02
  3.3972e+02   3.04e-02
  3.5264e+02   2.88e-02
  3.6606e+02   2.73e-02
  3.7998e+02   2.58e-02
  3.9444e+02   2.45e-02
  4.0945e+02   2.31e-02
  4.2502e+02   2.19e-02
  4.4119e+02   2.07e-02
  4.5798e+02   1.96e-02
  4.7540e+02   1.85e-02
  4.9348e+02   1.74e-02
  5.1226e+02   1.65e-02
  5.3175e+02   1.55e-02
  5.5198e+02   1.46e-02
  5.7297e+02   1.38e-02
  5.9477e+02   1.30e-02
  6.1740e+02   1.22e-02
  6.4089e+02   1.15e-02
  6.6527e+02   1.08e-02
  6.9058e+02   1.02e-02
  7.1685e+02   9.57e-03
  7.4412e+02   8.99e-03
  7.7243e+02   8.44e-03
  8.0181e+02   7.93e-03
  8.3232e+02   7.44e-03
  8.6398e+02   6.97e-03
  8.9685e+02   6.54e-03
  9.3097e+02   6.13e-03
  9.6638e+02   5.74e-03
  1.0031e+03   5.37e-03
  1.0413e+03   5.03e-03
  1.0809e+03   4.70e-03
  1.1220e+03   4.40e-03
  1.1647e+03   4.11e-03
  1.2090e+03   3.84e-03
  1.2550e+03   3.59e-03
  1.3028e+03   3.35e-03
  1.3523e+03   3.12e-03
  1.4038e+03   2.91e-03
  1.4572e+03   2.71e-03
  1.5126e+03   2.52e-03
  1.5702e+03   2.35e-03
  1.6299e+03   2.19e-03
  1.6919e+03   2.03e-03
  1.7563e+03   1.89e-03
  1.8231e+03   1.76e-03
  1.8925e+03   1.63e-03
  1.9645e+03   1.51e-03
  2.0392e+03   1.40e-03
  2.1168e+03   1.30e-03
  2.1973e+03   1.20e-03
  2.2809e+03   1.12e-03
  2.3677e+03   1.03e-03
  2.4577e+03   9.54e-04
  2.5512e+03   8.81e-04
  2.6483e+03   8.14e-04
  2.7490e+03   7.50e-04
  2.8536e+03   6.92e-04
  2.9622e+03   6.38e-04
  3.0749e+03   5.87e-04
  3.1918e+03   5.39e-04
  3.3133e+03   4.96e-04
  3.4393e+03   4.55e-04
  3.5702e+03   4.18e-04
  3.7060e+03   3.83e-04
  3.8470e+03   3.51e-04
  3.9933e+03   3.21e-04
  4.1452e+03   2.94e-04
  4.3029e+03   2.69e-04
  4.4666e+03   2.45e-04
  4.6366e+03   2.24e-04
  4.8129e+03   2.04e-04
  4.9960e+03   1.85e-04
  5.1861e+03   1.68e-04
  5.3834e+03   1.53e-04
  5.5882e+03   1.38e-04
  5.8008e+03   1.25e-04
  6.0215e+03   1.13e-04
  6.2506e+03   1.02e-04
  6.4883e+03   9.24e-05
  6.7352e+03   8.33e-05
  6.9914e+03   7.47e-05
  7.2574e+03   6.72e-05
  7.5335e+03   6.03e-05
  7.8201e+03   5.39e-05
  8.1176e+03   4.82e-05
  8.4264e+03   4.31e-05
  8.7470e+03   3.83e-05
  9.0797e+03   3.41e-05
  9.4251e+03   3.03e-05
  9.7837e+03   2.68e-05
  1.0156e+04   2.37e-05
  1.0542e+04   2.09e-05
  1.0943e+04   1.83e-05
  1.1360e+04   1.60e-05
  1.1792e+04   1.41e-05
  1.2240e+04   1.22e-05
  1.2706e+04   1.06e-05
  1.3189e+04   9.24e-06
  1.3691e+04   7.97e-06
  1.4212e+04   6.83e-06
  1.4753e+04   5.89e-06
  1.5314e+04   5.02e-06
  1.5897e+04   4.25e-06
  1.6501e+04   3.62e-06
  1.7129e+04   3.04e-06
  1.7781e+04   2.53e-06
  1.8457e+04   2.12e-06
  1.9159e+04   1.75e-06
  1.9888e+04   1.42e-06
  2.0645e+04   1.17e-06
  2.1430e+04   9.42e-07
  2.2245e+04   7.41e-07
  2.3092e+04   5.90e-07
  2.3970e+04   4.59e-07
  2.4882e+04   3.47e-07
  2.5829e+04   2.64e-07
  2.6811e+04   1.96e-07
  2.7831e+04   1.39e-07
  2.8890e+04   9.89e-08
  2.9989e+04   6.78e-08
  3.1130e+04   4.40e-08
  3.2314e+04   2.78e-08
  3.3544e+04   1.67e-08
  3.4820e+04   9.22e-09
  3.6144e+04   4.75e-09
  3.7519e+04   2.23e-09
  3.8947e+04   9.07e-10
  4.0428e+04   3.20e-10
  4.1966e+04   9.46e-11
  4.3563e+04   2.14e-11
  4.5220e+04   3.55e-12
  4.6941e+04   3.94e-13
  4.8726e+04   2.52e-14
  5.0580e+04   8.04e-16
