#  E [MeV]   Flux [# cm^{-2} s^{-1}  MeV^{-1}]
  3.0000e+04   1.56e-24
  3.1141e+04   1.49e-24
  3.2326e+04   1.44e-24
  3.3556e+04   1.38e-24
  3.4832e+04   1.32e-24
  3.6157e+04   1.27e-24
  3.7533e+04   1.22e-24
  3.8961e+04   1.17e-24
  4.0443e+04   1.12e-24
  4.1982e+04   1.08e-24
  4.3579e+04   1.03e-24
  4.5237e+04   9.93e-25
  4.6958e+04   9.53e-25
  4.8744e+04   9.14e-25
  5.0598e+04   8.77e-25
  5.2523e+04   8.41e-25
  5.4521e+04   8.07e-25
  5.6596e+04   7.74e-25
  5.8749e+04   7.43e-25
  6.0984e+04   7.12e-25
  6.3304e+04   6.83e-25
  6.5712e+04   6.55e-25
  6.8212e+04   6.28e-25
  7.0807e+04   6.02e-25
  7.3500e+04   5.77e-25
  7.6297e+04   5.53e-25
  7.9199e+04   5.30e-25
  8.2212e+04   5.07e-25
  8.5340e+04   4.86e-25
  8.8586e+04   4.65e-25
  9.1956e+04   4.46e-25
  9.5455e+04   4.27e-25
  9.9086e+04   4.09e-25
  1.0286e+05   3.91e-25
  1.0677e+05   3.74e-25
  1.1083e+05   3.58e-25
  1.1505e+05   3.43e-25
  1.1942e+05   3.28e-25
  1.2397e+05   3.13e-25
  1.2868e+05   3.00e-25
  1.3358e+05   2.86e-25
  1.3866e+05   2.74e-25
  1.4394e+05   2.62e-25
  1.4941e+05   2.50e-25
  1.5509e+05   2.39e-25
  1.6100e+05   2.28e-25
  1.6712e+05   2.17e-25
  1.7348e+05   2.07e-25
  1.8008e+05   1.98e-25
  1.8693e+05   1.89e-25
  1.9404e+05   1.80e-25
  2.0142e+05   1.71e-25
  2.0908e+05   1.63e-25
  2.1704e+05   1.56e-25
  2.2529e+05   1.48e-25
  2.3387e+05   1.41e-25
  2.4276e+05   1.34e-25
  2.5200e+05   1.28e-25
  2.6158e+05   1.21e-25
  2.7154e+05   1.15e-25
  2.8187e+05   1.10e-25
  2.9259e+05   1.04e-25
  3.0372e+05   9.89e-26
  3.1527e+05   9.39e-26
  3.2727e+05   8.91e-26
  3.3972e+05   8.45e-26
  3.5264e+05   8.01e-26
  3.6606e+05   7.58e-26
  3.7998e+05   7.18e-26
  3.9444e+05   6.80e-26
  4.0945e+05   6.43e-26
  4.2502e+05   6.08e-26
  4.4119e+05   5.75e-26
  4.5798e+05   5.44e-26
  4.7540e+05   5.13e-26
  4.9348e+05   4.85e-26
  5.1226e+05   4.58e-26
  5.3175e+05   4.32e-26
  5.5198e+05   4.07e-26
  5.7297e+05   3.84e-26
  5.9477e+05   3.61e-26
  6.1740e+05   3.40e-26
  6.4089e+05   3.20e-26
  6.6527e+05   3.01e-26
  6.9058e+05   2.83e-26
  7.1685e+05   2.66e-26
  7.4412e+05   2.50e-26
  7.7243e+05   2.35e-26
  8.0181e+05   2.20e-26
  8.3232e+05   2.07e-26
  8.6398e+05   1.94e-26
  8.9685e+05   1.82e-26
  9.3097e+05   1.70e-26
  9.6638e+05   1.60e-26
  1.0031e+06   1.49e-26
  1.0413e+06   1.40e-26
  1.0809e+06   1.31e-26
  1.1220e+06   1.22e-26
  1.1647e+06   1.14e-26
  1.2090e+06   1.07e-26
  1.2550e+06   9.97e-27
  1.3028e+06   9.30e-27
  1.3523e+06   8.68e-27
  1.4038e+06   8.08e-27
  1.4572e+06   7.54e-27
  1.5126e+06   7.02e-27
  1.5702e+06   6.53e-27
  1.6299e+06   6.08e-27
  1.6919e+06   5.65e-27
  1.7563e+06   5.25e-27
  1.8231e+06   4.88e-27
  1.8925e+06   4.53e-27
  1.9645e+06   4.20e-27
  2.0392e+06   3.90e-27
  2.1168e+06   3.62e-27
  2.1973e+06   3.35e-27
  2.2809e+06   3.10e-27
  2.3677e+06   2.87e-27
  2.4577e+06   2.65e-27
  2.5512e+06   2.45e-27
  2.6483e+06   2.26e-27
  2.7490e+06   2.09e-27
  2.8536e+06   1.92e-27
  2.9622e+06   1.77e-27
  3.0749e+06   1.63e-27
  3.1918e+06   1.50e-27
  3.3133e+06   1.38e-27
  3.4393e+06   1.27e-27
  3.5702e+06   1.16e-27
  3.7060e+06   1.07e-27
  3.8470e+06   9.76e-28
  3.9933e+06   8.92e-28
  4.1452e+06   8.17e-28
  4.3029e+06   7.47e-28
  4.4666e+06   6.80e-28
  4.6366e+06   6.22e-28
  4.8129e+06   5.66e-28
  4.9960e+06   5.14e-28
  5.1861e+06   4.68e-28
  5.3834e+06   4.25e-28
  5.5882e+06   3.84e-28
  5.8008e+06   3.49e-28
  6.0215e+06   3.15e-28
  6.2506e+06   2.84e-28
  6.4883e+06   2.57e-28
  6.7352e+06   2.31e-28
  6.9914e+06   2.08e-28
  7.2574e+06   1.87e-28
  7.5335e+06   1.68e-28
  7.8201e+06   1.50e-28
  8.1176e+06   1.34e-28
  8.4264e+06   1.20e-28
  8.7470e+06   1.06e-28
  9.0797e+06   9.47e-29
  9.4251e+06   8.42e-29
  9.7837e+06   7.44e-29
  1.0156e+07   6.58e-29
  1.0542e+07   5.81e-29
  1.0943e+07   5.09e-29
  1.1360e+07   4.46e-29
  1.1792e+07   3.91e-29
  1.2240e+07   3.40e-29
  1.2706e+07   2.95e-29
  1.3189e+07   2.57e-29
  1.3691e+07   2.21e-29
  1.4212e+07   1.90e-29
  1.4753e+07   1.64e-29
  1.5314e+07   1.40e-29
  1.5897e+07   1.18e-29
  1.6501e+07   1.01e-29
  1.7129e+07   8.46e-30
  1.7781e+07   7.03e-30
  1.8457e+07   5.90e-30
  1.9159e+07   4.87e-30
  1.9888e+07   3.96e-30
  2.0645e+07   3.25e-30
  2.1430e+07   2.62e-30
  2.2245e+07   2.06e-30
  2.3092e+07   1.64e-30
  2.3970e+07   1.28e-30
  2.4882e+07   9.65e-31
  2.5829e+07   7.34e-31
  2.6811e+07   5.44e-31
  2.7831e+07   3.87e-31
  2.8890e+07   2.75e-31
  2.9989e+07   1.88e-31
  3.1130e+07   1.22e-31
  3.2314e+07   7.73e-32
  3.3544e+07   4.64e-32
  3.4820e+07   2.56e-32
  3.6144e+07   1.32e-32
  3.7519e+07   6.20e-33
  3.8947e+07   2.52e-33
  4.0428e+07   8.91e-34
  4.1966e+07   2.63e-34
  4.3563e+07   5.96e-35
  4.5220e+07   9.86e-36
  4.6941e+07   1.10e-36
  4.8726e+07   7.01e-38
  5.0580e+07   2.24e-39
