#  E [GeV]   # per interaction  [GeV^{-1}]
  3.0000e+01   2.88e-02
  3.1232e+01   2.77e-02
  3.2514e+01   2.66e-02
  3.3849e+01   2.56e-02
  3.5238e+01   2.46e-02
  3.6685e+01   2.36e-02
  3.8191e+01   2.26e-02
  3.9759e+01   2.17e-02
  4.1391e+01   2.08e-02
  4.3090e+01   2.00e-02
  4.4859e+01   1.92e-02
  4.6701e+01   1.84e-02
  4.8618e+01   1.76e-02
  5.0614e+01   1.69e-02
  5.2692e+01   1.62e-02
  5.4855e+01   1.55e-02
  5.7107e+01   1.48e-02
  5.9451e+01   1.42e-02
  6.1892e+01   1.36e-02
  6.4433e+01   1.30e-02
  6.7078e+01   1.24e-02
  6.9832e+01   1.19e-02
  7.2699e+01   1.14e-02
  7.5683e+01   1.09e-02
  7.8790e+01   1.04e-02
  8.2025e+01   9.91e-03
  8.5392e+01   9.46e-03
  8.8898e+01   9.03e-03
  9.2547e+01   8.61e-03
  9.6347e+01   8.21e-03
  1.0030e+02   7.83e-03
  1.0442e+02   7.46e-03
  1.0871e+02   7.10e-03
  1.1317e+02   6.76e-03
  1.1782e+02   6.43e-03
  1.2265e+02   6.12e-03
  1.2769e+02   5.82e-03
  1.3293e+02   5.53e-03
  1.3839e+02   5.25e-03
  1.4407e+02   4.98e-03
  1.4998e+02   4.72e-03
  1.5614e+02   4.47e-03
  1.6255e+02   4.24e-03
  1.6922e+02   4.01e-03
  1.7617e+02   3.80e-03
  1.8340e+02   3.59e-03
  1.9093e+02   3.39e-03
  1.9877e+02   3.20e-03
  2.0693e+02   3.02e-03
  2.1543e+02   2.84e-03
  2.2427e+02   2.68e-03
  2.3348e+02   2.52e-03
  2.4306e+02   2.36e-03
  2.5304e+02   2.22e-03
  2.6343e+02   2.08e-03
  2.7424e+02   1.95e-03
  2.8550e+02   1.82e-03
  2.9722e+02   1.70e-03
  3.0942e+02   1.59e-03
  3.2213e+02   1.48e-03
  3.3535e+02   1.38e-03
  3.4912e+02   1.28e-03
  3.6345e+02   1.19e-03
  3.7837e+02   1.10e-03
  3.9390e+02   1.02e-03
  4.1008e+02   9.47e-04
  4.2691e+02   8.75e-04
  4.4444e+02   8.07e-04
  4.6268e+02   7.44e-04
  4.8168e+02   6.85e-04
  5.0145e+02   6.30e-04
  5.2204e+02   5.79e-04
  5.4347e+02   5.31e-04
  5.6578e+02   4.87e-04
  5.8901e+02   4.46e-04
  6.1319e+02   4.08e-04
  6.3836e+02   3.73e-04
  6.6457e+02   3.41e-04
  6.9185e+02   3.11e-04
  7.2025e+02   2.84e-04
  7.4982e+02   2.59e-04
  7.8061e+02   2.37e-04
  8.1265e+02   2.16e-04
  8.4601e+02   1.97e-04
  8.8075e+02   1.80e-04
  9.1690e+02   1.64e-04
  9.5455e+02   1.50e-04
  9.9373e+02   1.37e-04
  1.0345e+03   1.25e-04
  1.0770e+03   1.14e-04
  1.1212e+03   1.04e-04
  1.1672e+03   9.54e-05
  1.2152e+03   8.73e-05
  1.2650e+03   8.00e-05
  1.3170e+03   7.33e-05
  1.3711e+03   6.72e-05
  1.4273e+03   6.17e-05
  1.4859e+03   5.67e-05
  1.5469e+03   5.21e-05
  1.6104e+03   4.79e-05
  1.6766e+03   4.41e-05
  1.7454e+03   4.06e-05
  1.8170e+03   3.74e-05
  1.8916e+03   3.45e-05
  1.9693e+03   3.19e-05
  2.0501e+03   2.94e-05
  2.1343e+03   2.71e-05
  2.2219e+03   2.50e-05
  2.3131e+03   2.31e-05
  2.4081e+03   2.13e-05
  2.5070e+03   1.97e-05
  2.6099e+03   1.82e-05
  2.7170e+03   1.68e-05
  2.8286e+03   1.55e-05
  2.9447e+03   1.43e-05
  3.0656e+03   1.32e-05
  3.1914e+03   1.22e-05
  3.3225e+03   1.12e-05
  3.4589e+03   1.03e-05
  3.6008e+03   9.45e-06
  3.7487e+03   8.68e-06
  3.9026e+03   7.95e-06
  4.0628e+03   7.27e-06
  4.2296e+03   6.64e-06
  4.4032e+03   6.05e-06
  4.5840e+03   5.50e-06
  4.7722e+03   5.00e-06
  4.9681e+03   4.52e-06
  5.1720e+03   4.08e-06
  5.3844e+03   3.67e-06
  5.6054e+03   3.29e-06
  5.8355e+03   2.94e-06
  6.0751e+03   2.62e-06
  6.3245e+03   2.32e-06
  6.5841e+03   2.04e-06
  6.8544e+03   1.79e-06
  7.1358e+03   1.56e-06
  7.4288e+03   1.35e-06
  7.7338e+03   1.16e-06
  8.0513e+03   9.84e-07
  8.3818e+03   8.31e-07
  8.7259e+03   6.95e-07
  9.0841e+03   5.74e-07
  9.4571e+03   4.69e-07
  9.8453e+03   3.78e-07
  1.0249e+04   3.00e-07
  1.0670e+04   2.34e-07
  1.1108e+04   1.79e-07
  1.1564e+04   1.34e-07
  1.2039e+04   9.85e-08
  1.2533e+04   7.03e-08
  1.3048e+04   4.88e-08
  1.3584e+04   3.27e-08
  1.4141e+04   2.12e-08
  1.4722e+04   1.31e-08
  1.5326e+04   7.76e-09
  1.5955e+04   4.35e-09
  1.6610e+04   2.30e-09
  1.7292e+04   1.13e-09
  1.8002e+04   5.15e-10
  1.8741e+04   2.14e-10
  1.9511e+04   8.01e-11
  2.0312e+04   2.66e-11
  2.1145e+04   7.68e-12
  2.2013e+04   1.89e-12
  2.2917e+04   3.83e-13
  2.3858e+04   6.26e-14
  2.4837e+04   7.89e-15
  2.5857e+04   7.34e-16
  2.6919e+04   4.76e-17
  2.8024e+04   2.01e-18
  2.9174e+04   5.08e-20
  3.0372e+04   6.94e-22
  3.1619e+04   4.50e-24
  3.2917e+04   1.18e-26
  3.4268e+04   1.03e-29
  3.5675e+04   2.33e-33
  3.7140e+04   9.80e-38
  3.8664e+04   5.13e-43
  4.0252e+04   1.63e-46
  4.1904e+04   1.54e-46
  4.3624e+04   1.45e-46
  4.5415e+04   1.37e-46
  4.7280e+04   1.29e-46
  4.9221e+04   1.22e-46
  5.1241e+04   1.15e-46
  5.3345e+04   1.09e-46
  5.5535e+04   1.03e-46
  5.7815e+04   9.71e-47
  6.0188e+04   9.15e-47
  6.2659e+04   8.62e-47
  6.5232e+04   8.11e-47
  6.7910e+04   7.63e-47
  7.0698e+04   7.17e-47
  7.3600e+04   6.74e-47
  7.6621e+04   6.31e-47
  7.9767e+04   5.90e-47
  8.3042e+04   5.53e-47
  8.6451e+04   5.21e-47
  9.0000e+04   4.90e-47
