#  E [MeV]   Flux [# cm^{-2} s^{-1}  MeV^{-1}]
  3.0000e+04   2.73e-24
  3.0962e+04   2.63e-24
  3.1955e+04   2.52e-24
  3.2979e+04   2.42e-24
  3.4037e+04   2.32e-24
  3.5128e+04   2.23e-24
  3.6254e+04   2.14e-24
  3.7417e+04   2.05e-24
  3.8616e+04   1.97e-24
  3.9855e+04   1.89e-24
  4.1132e+04   1.81e-24
  4.2451e+04   1.74e-24
  4.3812e+04   1.67e-24
  4.5217e+04   1.60e-24
  4.6667e+04   1.53e-24
  4.8163e+04   1.47e-24
  4.9707e+04   1.41e-24
  5.1301e+04   1.35e-24
  5.2946e+04   1.29e-24
  5.4644e+04   1.24e-24
  5.6396e+04   1.19e-24
  5.8204e+04   1.14e-24
  6.0070e+04   1.09e-24
  6.1996e+04   1.04e-24
  6.3984e+04   1.00e-24
  6.6035e+04   9.57e-25
  6.8153e+04   9.17e-25
  7.0338e+04   8.78e-25
  7.2593e+04   8.40e-25
  7.4921e+04   8.04e-25
  7.7323e+04   7.70e-25
  7.9802e+04   7.36e-25
  8.2361e+04   7.05e-25
  8.5002e+04   6.74e-25
  8.7727e+04   6.45e-25
  9.0540e+04   6.17e-25
  9.3443e+04   5.90e-25
  9.6439e+04   5.64e-25
  9.9531e+04   5.39e-25
  1.0272e+05   5.15e-25
  1.0602e+05   4.92e-25
  1.0942e+05   4.69e-25
  1.1292e+05   4.48e-25
  1.1654e+05   4.28e-25
  1.2028e+05   4.08e-25
  1.2414e+05   3.90e-25
  1.2812e+05   3.72e-25
  1.3223e+05   3.54e-25
  1.3646e+05   3.38e-25
  1.4084e+05   3.22e-25
  1.4536e+05   3.06e-25
  1.5002e+05   2.92e-25
  1.5483e+05   2.78e-25
  1.5979e+05   2.64e-25
  1.6491e+05   2.51e-25
  1.7020e+05   2.38e-25
  1.7566e+05   2.26e-25
  1.8129e+05   2.15e-25
  1.8710e+05   2.04e-25
  1.9310e+05   1.93e-25
  1.9929e+05   1.83e-25
  2.0568e+05   1.73e-25
  2.1228e+05   1.64e-25
  2.1909e+05   1.55e-25
  2.2611e+05   1.47e-25
  2.3336e+05   1.38e-25
  2.4084e+05   1.31e-25
  2.4856e+05   1.23e-25
  2.5653e+05   1.16e-25
  2.6476e+05   1.10e-25
  2.7325e+05   1.04e-25
  2.8201e+05   9.76e-26
  2.9105e+05   9.20e-26
  3.0038e+05   8.66e-26
  3.1002e+05   8.15e-26
  3.1996e+05   7.66e-26
  3.3021e+05   7.20e-26
  3.4080e+05   6.76e-26
  3.5173e+05   6.35e-26
  3.6301e+05   5.96e-26
  3.7465e+05   5.59e-26
  3.8666e+05   5.23e-26
  3.9905e+05   4.90e-26
  4.1185e+05   4.58e-26
  4.2506e+05   4.27e-26
  4.3868e+05   3.99e-26
  4.5275e+05   3.72e-26
  4.6727e+05   3.47e-26
  4.8225e+05   3.23e-26
  4.9771e+05   3.01e-26
  5.1367e+05   2.80e-26
  5.3014e+05   2.60e-26
  5.4714e+05   2.41e-26
  5.6468e+05   2.24e-26
  5.8278e+05   2.07e-26
  6.0147e+05   1.92e-26
  6.2075e+05   1.78e-26
  6.4066e+05   1.64e-26
  6.6120e+05   1.52e-26
  6.8240e+05   1.40e-26
  7.0428e+05   1.29e-26
  7.2686e+05   1.19e-26
  7.5017e+05   1.10e-26
  7.7422e+05   1.01e-26
  7.9904e+05   9.31e-27
  8.2466e+05   8.55e-27
  8.5110e+05   7.84e-27
  8.7839e+05   7.21e-27
  9.0656e+05   6.61e-27
  9.3562e+05   6.05e-27
  9.6562e+05   5.54e-27
  9.9658e+05   5.07e-27
  1.0285e+06   4.64e-27
  1.0615e+06   4.24e-27
  1.0956e+06   3.87e-27
  1.1307e+06   3.53e-27
  1.1669e+06   3.22e-27
  1.2043e+06   2.93e-27
  1.2430e+06   2.67e-27
  1.2828e+06   2.43e-27
  1.3239e+06   2.21e-27
  1.3664e+06   2.01e-27
  1.4102e+06   1.82e-27
  1.4554e+06   1.66e-27
  1.5021e+06   1.50e-27
  1.5502e+06   1.36e-27
  1.6000e+06   1.23e-27
  1.6513e+06   1.11e-27
  1.7042e+06   9.97e-28
  1.7588e+06   9.02e-28
  1.8152e+06   8.13e-28
  1.8734e+06   7.30e-28
  1.9335e+06   6.55e-28
  1.9955e+06   5.90e-28
  2.0595e+06   5.29e-28
  2.1255e+06   4.72e-28
  2.1937e+06   4.24e-28
  2.2640e+06   3.80e-28
  2.3366e+06   3.39e-28
  2.4115e+06   3.00e-28
  2.4888e+06   2.69e-28
  2.5686e+06   2.40e-28
  2.6510e+06   2.12e-28
  2.7360e+06   1.88e-28
  2.8237e+06   1.67e-28
  2.9142e+06   1.48e-28
  3.0077e+06   1.30e-28
  3.1041e+06   1.15e-28
  3.2036e+06   1.01e-28
  3.3064e+06   8.88e-29
  3.4124e+06   7.74e-29
  3.5218e+06   6.83e-29
  3.6347e+06   5.98e-29
  3.7512e+06   5.18e-29
  3.8715e+06   4.52e-29
  3.9957e+06   3.95e-29
  4.1238e+06   3.43e-29
  4.2560e+06   2.94e-29
  4.3924e+06   2.57e-29
  4.5333e+06   2.23e-29
  4.6786e+06   1.91e-29
  4.8286e+06   1.63e-29
  4.9835e+06   1.42e-29
  5.1433e+06   1.22e-29
  5.3082e+06   1.03e-29
  5.4784e+06   8.82e-30
  5.6540e+06   7.59e-30
  5.8353e+06   6.45e-30
  6.0224e+06   5.40e-30
  6.2155e+06   4.65e-30
  6.4148e+06   3.96e-30
  6.6205e+06   3.33e-30
  6.8327e+06   2.80e-30
  7.0518e+06   2.39e-30
  7.2779e+06   2.03e-30
  7.5113e+06   1.69e-30
  7.7521e+06   1.43e-30
  8.0007e+06   1.22e-30
  8.2572e+06   1.03e-30
  8.5219e+06   8.53e-31
  8.7952e+06   7.29e-31
  9.0772e+06   6.16e-31
  9.3682e+06   5.15e-31
  9.6686e+06   4.31e-31
  9.9786e+06   3.67e-31
  1.0299e+07   3.09e-31
  1.0629e+07   2.58e-31
  1.0970e+07   2.17e-31
  1.1321e+07   1.83e-31
  1.1684e+07   1.52e-31
  1.2059e+07   1.25e-31
  1.2446e+07   1.03e-31
  1.2845e+07   8.44e-32
  1.3256e+07   6.79e-32
  1.3681e+07   5.41e-32
  1.4120e+07   4.26e-32
  1.4573e+07   3.29e-32
  1.5040e+07   2.50e-32
  1.5522e+07   1.90e-32
  1.6020e+07   1.42e-32
