#  E [GeV]   # per interaction  [GeV^{-1}]
  3.0000e+01   2.70e-02
  3.1123e+01   2.60e-02
  3.2288e+01   2.50e-02
  3.3497e+01   2.40e-02
  3.4751e+01   2.31e-02
  3.6051e+01   2.22e-02
  3.7401e+01   2.13e-02
  3.8801e+01   2.05e-02
  4.0253e+01   1.97e-02
  4.1760e+01   1.89e-02
  4.3324e+01   1.82e-02
  4.4945e+01   1.74e-02
  4.6628e+01   1.67e-02
  4.8373e+01   1.61e-02
  5.0184e+01   1.54e-02
  5.2063e+01   1.48e-02
  5.4011e+01   1.42e-02
  5.6033e+01   1.36e-02
  5.8131e+01   1.30e-02
  6.0307e+01   1.25e-02
  6.2564e+01   1.20e-02
  6.4906e+01   1.15e-02
  6.7336e+01   1.10e-02
  6.9857e+01   1.05e-02
  7.2472e+01   1.01e-02
  7.5184e+01   9.63e-03
  7.7999e+01   9.22e-03
  8.0919e+01   8.81e-03
  8.3948e+01   8.43e-03
  8.7090e+01   8.06e-03
  9.0350e+01   7.70e-03
  9.3732e+01   7.36e-03
  9.7241e+01   7.03e-03
  1.0088e+02   6.71e-03
  1.0466e+02   6.41e-03
  1.0858e+02   6.11e-03
  1.1264e+02   5.83e-03
  1.1686e+02   5.57e-03
  1.2123e+02   5.31e-03
  1.2577e+02   5.06e-03
  1.3048e+02   4.82e-03
  1.3536e+02   4.60e-03
  1.4043e+02   4.38e-03
  1.4568e+02   4.17e-03
  1.5114e+02   3.97e-03
  1.5680e+02   3.78e-03
  1.6266e+02   3.60e-03
  1.6875e+02   3.42e-03
  1.7507e+02   3.25e-03
  1.8162e+02   3.09e-03
  1.8842e+02   2.94e-03
  1.9548e+02   2.79e-03
  2.0279e+02   2.65e-03
  2.1039e+02   2.52e-03
  2.1826e+02   2.39e-03
  2.2643e+02   2.27e-03
  2.3491e+02   2.15e-03
  2.4370e+02   2.04e-03
  2.5282e+02   1.94e-03
  2.6229e+02   1.83e-03
  2.7211e+02   1.74e-03
  2.8229e+02   1.65e-03
  2.9286e+02   1.56e-03
  3.0382e+02   1.48e-03
  3.1519e+02   1.40e-03
  3.2699e+02   1.32e-03
  3.3923e+02   1.25e-03
  3.5193e+02   1.18e-03
  3.6511e+02   1.12e-03
  3.7877e+02   1.06e-03
  3.9295e+02   9.97e-04
  4.0766e+02   9.41e-04
  4.2292e+02   8.89e-04
  4.3875e+02   8.39e-04
  4.5518e+02   7.91e-04
  4.7222e+02   7.46e-04
  4.8989e+02   7.04e-04
  5.0823e+02   6.64e-04
  5.2726e+02   6.25e-04
  5.4699e+02   5.89e-04
  5.6747e+02   5.55e-04
  5.8871e+02   5.23e-04
  6.1075e+02   4.92e-04
  6.3361e+02   4.64e-04
  6.5733e+02   4.36e-04
  6.8194e+02   4.11e-04
  7.0746e+02   3.86e-04
  7.3395e+02   3.64e-04
  7.6142e+02   3.42e-04
  7.8992e+02   3.22e-04
  8.1949e+02   3.03e-04
  8.5017e+02   2.85e-04
  8.8199e+02   2.68e-04
  9.1501e+02   2.52e-04
  9.4926e+02   2.37e-04
  9.8479e+02   2.23e-04
  1.0217e+03   2.10e-04
  1.0599e+03   1.97e-04
  1.0996e+03   1.86e-04
  1.1407e+03   1.75e-04
  1.1834e+03   1.65e-04
  1.2277e+03   1.55e-04
  1.2737e+03   1.46e-04
  1.3214e+03   1.37e-04
  1.3708e+03   1.29e-04
  1.4222e+03   1.22e-04
  1.4754e+03   1.15e-04
  1.5306e+03   1.08e-04
  1.5879e+03   1.02e-04
  1.6474e+03   9.60e-05
  1.7090e+03   9.05e-05
  1.7730e+03   8.53e-05
  1.8394e+03   8.05e-05
  1.9082e+03   7.59e-05
  1.9797e+03   7.16e-05
  2.0538e+03   6.76e-05
  2.1306e+03   6.38e-05
  2.2104e+03   6.02e-05
  2.2931e+03   5.69e-05
  2.3790e+03   5.38e-05
  2.4680e+03   5.08e-05
  2.5604e+03   4.80e-05
  2.6563e+03   4.54e-05
  2.7557e+03   4.29e-05
  2.8589e+03   4.06e-05
  2.9659e+03   3.85e-05
  3.0769e+03   3.64e-05
  3.1921e+03   3.45e-05
  3.3116e+03   3.26e-05
  3.4355e+03   3.09e-05
  3.5641e+03   2.93e-05
  3.6976e+03   2.78e-05
  3.8360e+03   2.63e-05
  3.9796e+03   2.49e-05
  4.1285e+03   2.36e-05
  4.2831e+03   2.24e-05
  4.4434e+03   2.12e-05
  4.6097e+03   2.01e-05
  4.7823e+03   1.91e-05
  4.9613e+03   1.81e-05
  5.1470e+03   1.72e-05
  5.3397e+03   1.63e-05
  5.5396e+03   1.54e-05
  5.7470e+03   1.46e-05
  5.9621e+03   1.39e-05
  6.1853e+03   1.32e-05
  6.4168e+03   1.25e-05
  6.6570e+03   1.18e-05
  6.9062e+03   1.12e-05
  7.1647e+03   1.06e-05
  7.4329e+03   1.00e-05
  7.7112e+03   9.48e-06
  7.9998e+03   8.96e-06
  8.2993e+03   8.46e-06
  8.6100e+03   7.98e-06
  8.9323e+03   7.52e-06
  9.2666e+03   7.08e-06
  9.6135e+03   6.66e-06
  9.9734e+03   6.26e-06
  1.0347e+04   5.87e-06
  1.0734e+04   5.50e-06
  1.1136e+04   5.14e-06
  1.1553e+04   4.80e-06
  1.1985e+04   4.47e-06
  1.2434e+04   4.15e-06
  1.2899e+04   3.84e-06
  1.3382e+04   3.55e-06
  1.3883e+04   3.27e-06
  1.4403e+04   3.00e-06
  1.4942e+04   2.74e-06
  1.5501e+04   2.50e-06
  1.6081e+04   2.26e-06
  1.6683e+04   2.04e-06
  1.7308e+04   1.82e-06
  1.7956e+04   1.62e-06
  1.8628e+04   1.43e-06
  1.9325e+04   1.24e-06
  2.0049e+04   1.08e-06
  2.0799e+04   9.19e-07
  2.1578e+04   7.75e-07
  2.2386e+04   6.43e-07
  2.3224e+04   5.24e-07
  2.4093e+04   4.18e-07
  2.4995e+04   3.26e-07
  2.5930e+04   2.47e-07
  2.6901e+04   1.81e-07
  2.7908e+04   1.28e-07
  2.8953e+04   8.57e-08
  3.0037e+04   5.45e-08
  3.1161e+04   3.25e-08
  3.2327e+04   1.79e-08
  3.3537e+04   8.92e-09
  3.4793e+04   3.96e-09
  3.6095e+04   1.52e-09
  3.7446e+04   4.92e-10
  3.8848e+04   1.28e-10
  4.0302e+04   2.53e-11
  4.1811e+04   3.57e-12
  4.3376e+04   3.27e-13
  4.5000e+04   1.74e-14
