#  E [GeV]   # per interaction  [GeV^{-1}]
  3.0000e+01   2.98e-02
  3.1232e+01   2.86e-02
  3.2514e+01   2.75e-02
  3.3849e+01   2.65e-02
  3.5238e+01   2.54e-02
  3.6685e+01   2.44e-02
  3.8191e+01   2.35e-02
  3.9759e+01   2.25e-02
  4.1391e+01   2.16e-02
  4.3090e+01   2.08e-02
  4.4859e+01   1.99e-02
  4.6701e+01   1.91e-02
  4.8618e+01   1.83e-02
  5.0614e+01   1.76e-02
  5.2692e+01   1.69e-02
  5.4855e+01   1.62e-02
  5.7107e+01   1.55e-02
  5.9451e+01   1.49e-02
  6.1892e+01   1.42e-02
  6.4433e+01   1.36e-02
  6.7078e+01   1.30e-02
  6.9832e+01   1.25e-02
  7.2699e+01   1.19e-02
  7.5683e+01   1.14e-02
  7.8790e+01   1.09e-02
  8.2025e+01   1.05e-02
  8.5392e+01   9.99e-03
  8.8898e+01   9.55e-03
  9.2547e+01   9.12e-03
  9.6347e+01   8.71e-03
  1.0030e+02   8.32e-03
  1.0442e+02   7.94e-03
  1.0871e+02   7.58e-03
  1.1317e+02   7.23e-03
  1.1782e+02   6.89e-03
  1.2265e+02   6.57e-03
  1.2769e+02   6.26e-03
  1.3293e+02   5.97e-03
  1.3839e+02   5.68e-03
  1.4407e+02   5.41e-03
  1.4998e+02   5.14e-03
  1.5614e+02   4.89e-03
  1.6255e+02   4.65e-03
  1.6922e+02   4.42e-03
  1.7617e+02   4.20e-03
  1.8340e+02   3.99e-03
  1.9093e+02   3.78e-03
  1.9877e+02   3.59e-03
  2.0693e+02   3.40e-03
  2.1543e+02   3.22e-03
  2.2427e+02   3.05e-03
  2.3348e+02   2.89e-03
  2.4306e+02   2.73e-03
  2.5304e+02   2.59e-03
  2.6343e+02   2.44e-03
  2.7424e+02   2.31e-03
  2.8550e+02   2.18e-03
  2.9722e+02   2.05e-03
  3.0942e+02   1.94e-03
  3.2213e+02   1.82e-03
  3.3535e+02   1.72e-03
  3.4912e+02   1.61e-03
  3.6345e+02   1.52e-03
  3.7837e+02   1.43e-03
  3.9390e+02   1.34e-03
  4.1008e+02   1.26e-03
  4.2691e+02   1.18e-03
  4.4444e+02   1.10e-03
  4.6268e+02   1.03e-03
  4.8168e+02   9.68e-04
  5.0145e+02   9.06e-04
  5.2204e+02   8.48e-04
  5.4347e+02   7.93e-04
  5.6578e+02   7.41e-04
  5.8901e+02   6.93e-04
  6.1319e+02   6.47e-04
  6.3836e+02   6.05e-04
  6.6457e+02   5.65e-04
  6.9185e+02   5.28e-04
  7.2025e+02   4.94e-04
  7.4982e+02   4.62e-04
  7.8061e+02   4.32e-04
  8.1265e+02   4.05e-04
  8.4601e+02   3.79e-04
  8.8075e+02   3.55e-04
  9.1690e+02   3.33e-04
  9.5455e+02   3.12e-04
  9.9373e+02   2.93e-04
  1.0345e+03   2.75e-04
  1.0770e+03   2.59e-04
  1.1212e+03   2.44e-04
  1.1672e+03   2.30e-04
  1.2152e+03   2.17e-04
  1.2650e+03   2.05e-04
  1.3170e+03   1.93e-04
  1.3711e+03   1.83e-04
  1.4273e+03   1.74e-04
  1.4859e+03   1.64e-04
  1.5469e+03   1.56e-04
  1.6104e+03   1.48e-04
  1.6766e+03   1.41e-04
  1.7454e+03   1.34e-04
  1.8170e+03   1.28e-04
  1.8916e+03   1.22e-04
  1.9693e+03   1.17e-04
  2.0501e+03   1.11e-04
  2.1343e+03   1.06e-04
  2.2219e+03   1.02e-04
  2.3131e+03   9.75e-05
  2.4081e+03   9.33e-05
  2.5070e+03   8.94e-05
  2.6099e+03   8.56e-05
  2.7170e+03   8.20e-05
  2.8286e+03   7.86e-05
  2.9447e+03   7.53e-05
  3.0656e+03   7.21e-05
  3.1914e+03   6.90e-05
  3.3225e+03   6.61e-05
  3.4589e+03   6.32e-05
  3.6008e+03   6.04e-05
  3.7487e+03   5.76e-05
  3.9026e+03   5.50e-05
  4.0628e+03   5.24e-05
  4.2296e+03   4.99e-05
  4.4032e+03   4.74e-05
  4.5840e+03   4.50e-05
  4.7722e+03   4.27e-05
  4.9681e+03   4.03e-05
  5.1720e+03   3.81e-05
  5.3844e+03   3.58e-05
  5.6054e+03   3.37e-05
  5.8355e+03   3.15e-05
  6.0751e+03   2.94e-05
  6.3245e+03   2.74e-05
  6.5841e+03   2.54e-05
  6.8544e+03   2.34e-05
  7.1358e+03   2.15e-05
  7.4288e+03   1.97e-05
  7.7338e+03   1.79e-05
  8.0513e+03   1.62e-05
  8.3818e+03   1.46e-05
  8.7259e+03   1.31e-05
  9.0841e+03   1.16e-05
  9.4571e+03   1.02e-05
  9.8453e+03   8.87e-06
  1.0249e+04   7.66e-06
  1.0670e+04   6.54e-06
  1.1108e+04   5.51e-06
  1.1564e+04   4.59e-06
  1.2039e+04   3.76e-06
  1.2533e+04   3.03e-06
  1.3048e+04   2.40e-06
  1.3584e+04   1.86e-06
  1.4141e+04   1.41e-06
  1.4722e+04   1.04e-06
  1.5326e+04   7.45e-07
  1.5955e+04   5.16e-07
  1.6610e+04   3.45e-07
  1.7292e+04   2.20e-07
  1.8002e+04   1.34e-07
  1.8741e+04   7.72e-08
  1.9511e+04   4.16e-08
  2.0312e+04   2.08e-08
  2.1145e+04   9.57e-09
  2.2013e+04   3.97e-09
  2.2917e+04   1.47e-09
  2.3858e+04   4.73e-10
  2.4837e+04   1.29e-10
  2.5857e+04   2.93e-11
  2.6919e+04   5.26e-12
  2.8024e+04   7.20e-13
  2.9174e+04   7.08e-14
  3.0372e+04   4.68e-15
  3.1619e+04   1.90e-16
  3.2917e+04   4.27e-18
  3.4268e+04   4.60e-20
  3.5675e+04   1.99e-22
  3.7140e+04   2.74e-25
  3.8664e+04   9.02e-29
  4.0252e+04   4.77e-33
  4.1904e+04   2.43e-38
  4.3624e+04   6.06e-45
  4.5415e+04   5.12e-46
  4.7280e+04   4.52e-46
  4.9221e+04   4.00e-46
  5.1241e+04   3.51e-46
  5.3345e+04   3.06e-46
  5.5535e+04   2.67e-46
  5.7815e+04   2.30e-46
  6.0188e+04   1.98e-46
  6.2659e+04   1.71e-46
  6.5232e+04   1.46e-46
  6.7910e+04   1.25e-46
  7.0698e+04   1.08e-46
  7.3600e+04   9.17e-47
  7.6621e+04   7.91e-47
  7.9767e+04   6.92e-47
  8.3042e+04   6.00e-47
  8.6451e+04   5.37e-47
  9.0000e+04   4.90e-47
