#  E [MeV]   Flux [# cm^{-2} s^{-1}  MeV^{-1}]
  3.0000e+04   1.87e-21
  3.0854e+04   1.81e-21
  3.1733e+04   1.75e-21
  3.2636e+04   1.70e-21
  3.3566e+04   1.65e-21
  3.4521e+04   1.59e-21
  3.5504e+04   1.55e-21
  3.6515e+04   1.50e-21
  3.7555e+04   1.45e-21
  3.8625e+04   1.41e-21
  3.9724e+04   1.36e-21
  4.0855e+04   1.32e-21
  4.2019e+04   1.28e-21
  4.3215e+04   1.24e-21
  4.4446e+04   1.20e-21
  4.5711e+04   1.17e-21
  4.7013e+04   1.13e-21
  4.8352e+04   1.10e-21
  4.9728e+04   1.07e-21
  5.1144e+04   1.03e-21
  5.2601e+04   1.00e-21
  5.4099e+04   9.73e-22
  5.5639e+04   9.45e-22
  5.7223e+04   9.18e-22
  5.8853e+04   8.91e-22
  6.0528e+04   8.66e-22
  6.2252e+04   8.41e-22
  6.4025e+04   8.17e-22
  6.5848e+04   7.94e-22
  6.7723e+04   7.72e-22
  6.9651e+04   7.51e-22
  7.1634e+04   7.30e-22
  7.3674e+04   7.10e-22
  7.5772e+04   6.90e-22
  7.7929e+04   6.72e-22
  8.0148e+04   6.54e-22
  8.2431e+04   6.37e-22
  8.4778e+04   6.20e-22
  8.7192e+04   6.04e-22
  8.9674e+04   5.88e-22
  9.2228e+04   5.73e-22
  9.4854e+04   5.58e-22
  9.7555e+04   5.44e-22
  1.0033e+05   5.31e-22
  1.0319e+05   5.18e-22
  1.0613e+05   5.05e-22
  1.0915e+05   4.93e-22
  1.1226e+05   4.81e-22
  1.1545e+05   4.69e-22
  1.1874e+05   4.58e-22
  1.2212e+05   4.47e-22
  1.2560e+05   4.37e-22
  1.2918e+05   4.27e-22
  1.3286e+05   4.17e-22
  1.3664e+05   4.08e-22
  1.4053e+05   3.98e-22
  1.4453e+05   3.89e-22
  1.4865e+05   3.81e-22
  1.5288e+05   3.72e-22
  1.5723e+05   3.64e-22
  1.6171e+05   3.56e-22
  1.6631e+05   3.48e-22
  1.7105e+05   3.40e-22
  1.7592e+05   3.33e-22
  1.8093e+05   3.25e-22
  1.8608e+05   3.18e-22
  1.9138e+05   3.11e-22
  1.9683e+05   3.05e-22
  2.0243e+05   2.98e-22
  2.0820e+05   2.91e-22
  2.1413e+05   2.85e-22
  2.2022e+05   2.79e-22
  2.2649e+05   2.72e-22
  2.3294e+05   2.66e-22
  2.3958e+05   2.60e-22
  2.4640e+05   2.55e-22
  2.5341e+05   2.49e-22
  2.6063e+05   2.43e-22
  2.6805e+05   2.37e-22
  2.7568e+05   2.32e-22
  2.8353e+05   2.27e-22
  2.9161e+05   2.21e-22
  2.9991e+05   2.16e-22
  3.0845e+05   2.11e-22
  3.1723e+05   2.06e-22
  3.2627e+05   2.01e-22
  3.3556e+05   1.96e-22
  3.4511e+05   1.91e-22
  3.5494e+05   1.86e-22
  3.6504e+05   1.81e-22
  3.7544e+05   1.76e-22
  3.8613e+05   1.72e-22
  3.9712e+05   1.67e-22
  4.0843e+05   1.63e-22
  4.2006e+05   1.58e-22
  4.3202e+05   1.54e-22
  4.4432e+05   1.50e-22
  4.5698e+05   1.45e-22
  4.6999e+05   1.41e-22
  4.8337e+05   1.37e-22
  4.9713e+05   1.33e-22
  5.1129e+05   1.29e-22
  5.2585e+05   1.25e-22
  5.4082e+05   1.21e-22
  5.5622e+05   1.17e-22
  5.7206e+05   1.13e-22
  5.8835e+05   1.10e-22
  6.0510e+05   1.06e-22
  6.2233e+05   1.03e-22
  6.4005e+05   9.93e-23
  6.5828e+05   9.60e-23
  6.7702e+05   9.27e-23
  6.9630e+05   8.95e-23
  7.1613e+05   8.64e-23
  7.3652e+05   8.34e-23
  7.5749e+05   8.05e-23
  7.7906e+05   7.76e-23
  8.0124e+05   7.48e-23
  8.2406e+05   7.21e-23
  8.4752e+05   6.94e-23
  8.7165e+05   6.68e-23
  8.9647e+05   6.43e-23
  9.2200e+05   6.19e-23
  9.4825e+05   5.96e-23
  9.7526e+05   5.72e-23
  1.0030e+06   5.50e-23
  1.0316e+06   5.29e-23
  1.0610e+06   5.08e-23
  1.0912e+06   4.88e-23
  1.1222e+06   4.68e-23
  1.1542e+06   4.49e-23
  1.1871e+06   4.31e-23
  1.2209e+06   4.14e-23
  1.2556e+06   3.96e-23
  1.2914e+06   3.80e-23
  1.3281e+06   3.64e-23
  1.3660e+06   3.49e-23
  1.4049e+06   3.34e-23
  1.4449e+06   3.19e-23
  1.4860e+06   3.05e-23
  1.5283e+06   2.92e-23
  1.5718e+06   2.78e-23
  1.6166e+06   2.66e-23
  1.6626e+06   2.54e-23
  1.7100e+06   2.42e-23
  1.7587e+06   2.30e-23
  1.8087e+06   2.19e-23
  1.8602e+06   2.08e-23
  1.9132e+06   1.98e-23
  1.9677e+06   1.88e-23
  2.0237e+06   1.78e-23
  2.0813e+06   1.69e-23
  2.1406e+06   1.60e-23
  2.2016e+06   1.52e-23
  2.2642e+06   1.43e-23
  2.3287e+06   1.35e-23
  2.3950e+06   1.28e-23
  2.4632e+06   1.20e-23
  2.5334e+06   1.13e-23
  2.6055e+06   1.06e-23
  2.6797e+06   9.97e-24
  2.7560e+06   9.34e-24
  2.8345e+06   8.74e-24
  2.9152e+06   8.16e-24
  2.9982e+06   7.62e-24
  3.0836e+06   7.08e-24
  3.1714e+06   6.57e-24
  3.2617e+06   6.09e-24
  3.3545e+06   5.63e-24
  3.4501e+06   5.19e-24
  3.5483e+06   4.78e-24
  3.6493e+06   4.39e-24
  3.7532e+06   4.02e-24
  3.8601e+06   3.67e-24
  3.9700e+06   3.35e-24
  4.0831e+06   3.04e-24
  4.1993e+06   2.75e-24
  4.3189e+06   2.49e-24
  4.4419e+06   2.25e-24
  4.5684e+06   2.02e-24
  4.6985e+06   1.81e-24
  4.8322e+06   1.62e-24
  4.9698e+06   1.44e-24
  5.1114e+06   1.28e-24
  5.2569e+06   1.13e-24
  5.4066e+06   9.92e-25
  5.5605e+06   8.77e-25
  5.7189e+06   7.69e-25
  5.8817e+06   6.68e-25
  6.0492e+06   5.79e-25
  6.2214e+06   5.08e-25
  6.3986e+06   4.43e-25
  6.5808e+06   3.82e-25
  6.7682e+06   3.28e-25
  6.9609e+06   2.88e-25
  7.1591e+06   2.52e-25
  7.3630e+06   2.19e-25
  7.5726e+06   1.88e-25
  7.7882e+06   1.70e-25
  8.0100e+06   1.53e-25
