#  E [MeV]   Flux [# cm^{-2} s^{-1}  MeV^{-1}]
  3.0000e+04   1.03e-23
  3.0872e+04   9.90e-24
  3.1770e+04   9.53e-24
  3.2694e+04   9.16e-24
  3.3644e+04   8.81e-24
  3.4623e+04   8.47e-24
  3.5629e+04   8.14e-24
  3.6665e+04   7.83e-24
  3.7731e+04   7.52e-24
  3.8829e+04   7.23e-24
  3.9958e+04   6.94e-24
  4.1119e+04   6.67e-24
  4.2315e+04   6.40e-24
  4.3545e+04   6.15e-24
  4.4812e+04   5.90e-24
  4.6115e+04   5.66e-24
  4.7456e+04   5.43e-24
  4.8835e+04   5.21e-24
  5.0255e+04   5.00e-24
  5.1717e+04   4.80e-24
  5.3220e+04   4.60e-24
  5.4768e+04   4.41e-24
  5.6360e+04   4.22e-24
  5.7999e+04   4.05e-24
  5.9686e+04   3.87e-24
  6.1421e+04   3.71e-24
  6.3207e+04   3.55e-24
  6.5045e+04   3.40e-24
  6.6936e+04   3.25e-24
  6.8882e+04   3.11e-24
  7.0885e+04   2.97e-24
  7.2947e+04   2.84e-24
  7.5068e+04   2.72e-24
  7.7250e+04   2.60e-24
  7.9496e+04   2.48e-24
  8.1808e+04   2.37e-24
  8.4187e+04   2.26e-24
  8.6635e+04   2.16e-24
  8.9154e+04   2.06e-24
  9.1746e+04   1.96e-24
  9.4414e+04   1.87e-24
  9.7159e+04   1.79e-24
  9.9984e+04   1.70e-24
  1.0289e+05   1.62e-24
  1.0588e+05   1.54e-24
  1.0896e+05   1.47e-24
  1.1213e+05   1.40e-24
  1.1539e+05   1.33e-24
  1.1875e+05   1.27e-24
  1.2220e+05   1.21e-24
  1.2575e+05   1.15e-24
  1.2941e+05   1.09e-24
  1.3317e+05   1.04e-24
  1.3704e+05   9.85e-25
  1.4103e+05   9.36e-25
  1.4513e+05   8.89e-25
  1.4935e+05   8.44e-25
  1.5369e+05   8.00e-25
  1.5816e+05   7.59e-25
  1.6276e+05   7.20e-25
  1.6749e+05   6.82e-25
  1.7236e+05   6.46e-25
  1.7737e+05   6.12e-25
  1.8253e+05   5.79e-25
  1.8784e+05   5.48e-25
  1.9330e+05   5.18e-25
  1.9892e+05   4.90e-25
  2.0470e+05   4.63e-25
  2.1066e+05   4.37e-25
  2.1678e+05   4.13e-25
  2.2309e+05   3.89e-25
  2.2957e+05   3.67e-25
  2.3625e+05   3.46e-25
  2.4312e+05   3.25e-25
  2.5019e+05   3.06e-25
  2.5746e+05   2.88e-25
  2.6495e+05   2.71e-25
  2.7265e+05   2.54e-25
  2.8058e+05   2.39e-25
  2.8874e+05   2.24e-25
  2.9713e+05   2.10e-25
  3.0577e+05   1.97e-25
  3.1466e+05   1.85e-25
  3.2381e+05   1.73e-25
  3.3323e+05   1.62e-25
  3.4292e+05   1.51e-25
  3.5289e+05   1.41e-25
  3.6315e+05   1.32e-25
  3.7371e+05   1.23e-25
  3.8457e+05   1.14e-25
  3.9576e+05   1.07e-25
  4.0726e+05   9.94e-26
  4.1911e+05   9.24e-26
  4.3129e+05   8.57e-26
  4.4383e+05   7.97e-26
  4.5674e+05   7.40e-26
  4.7002e+05   6.85e-26
  4.8368e+05   6.34e-26
  4.9775e+05   5.87e-26
  5.1222e+05   5.43e-26
  5.2712e+05   5.02e-26
  5.4244e+05   4.62e-26
  5.5821e+05   4.27e-26
  5.7445e+05   3.94e-26
  5.9115e+05   3.63e-26
  6.0834e+05   3.33e-26
  6.2603e+05   3.07e-26
  6.4423e+05   2.83e-26
  6.6296e+05   2.59e-26
  6.8224e+05   2.37e-26
  7.0208e+05   2.18e-26
  7.2249e+05   2.00e-26
  7.4350e+05   1.83e-26
  7.6512e+05   1.67e-26
  7.8736e+05   1.53e-26
  8.1026e+05   1.40e-26
  8.3382e+05   1.28e-26
  8.5806e+05   1.16e-26
  8.8301e+05   1.06e-26
  9.0869e+05   9.69e-27
  9.3511e+05   8.82e-27
  9.6230e+05   7.99e-27
  9.9028e+05   7.28e-27
  1.0191e+06   6.63e-27
  1.0487e+06   6.01e-27
  1.0792e+06   5.43e-27
  1.1106e+06   4.94e-27
  1.1429e+06   4.48e-27
  1.1761e+06   4.06e-27
  1.2103e+06   3.66e-27
  1.2455e+06   3.31e-27
  1.2817e+06   3.00e-27
  1.3190e+06   2.71e-27
  1.3573e+06   2.44e-27
  1.3968e+06   2.20e-27
  1.4374e+06   1.99e-27
  1.4792e+06   1.79e-27
  1.5222e+06   1.61e-27
  1.5665e+06   1.45e-27
  1.6120e+06   1.31e-27
  1.6589e+06   1.18e-27
  1.7071e+06   1.05e-27
  1.7568e+06   9.47e-28
  1.8079e+06   8.53e-28
  1.8604e+06   7.64e-28
  1.9145e+06   6.81e-28
  1.9702e+06   6.11e-28
  2.0275e+06   5.50e-28
  2.0864e+06   4.92e-28
  2.1471e+06   4.38e-28
  2.2095e+06   3.92e-28
  2.2738e+06   3.53e-28
  2.3399e+06   3.15e-28
  2.4079e+06   2.80e-28
  2.4779e+06   2.50e-28
  2.5500e+06   2.25e-28
  2.6241e+06   2.01e-28
  2.7004e+06   1.78e-28
  2.7790e+06   1.59e-28
  2.8598e+06   1.43e-28
  2.9429e+06   1.28e-28
  3.0285e+06   1.14e-28
  3.1165e+06   1.02e-28
  3.2072e+06   9.18e-29
  3.3004e+06   8.22e-29
  3.3964e+06   7.32e-29
  3.4951e+06   6.58e-29
  3.5968e+06   5.95e-29
  3.7013e+06   5.36e-29
  3.8090e+06   4.79e-29
  3.9197e+06   4.33e-29
  4.0337e+06   3.93e-29
  4.1510e+06   3.56e-29
  4.2717e+06   3.20e-29
  4.3959e+06   2.91e-29
  4.5237e+06   2.65e-29
  4.6552e+06   2.42e-29
  4.7906e+06   2.19e-29
  4.9299e+06   2.00e-29
  5.0732e+06   1.83e-29
  5.2208e+06   1.68e-29
  5.3726e+06   1.53e-29
  5.5288e+06   1.40e-29
  5.6895e+06   1.29e-29
  5.8550e+06   1.18e-29
  6.0252e+06   1.08e-29
  6.2004e+06   9.92e-30
  6.3807e+06   9.11e-30
  6.5662e+06   8.35e-30
  6.7572e+06   7.63e-30
  6.9536e+06   6.96e-30
  7.1558e+06   6.35e-30
  7.3639e+06   5.77e-30
  7.5780e+06   5.23e-30
  7.7984e+06   4.73e-30
  8.0251e+06   4.26e-30
  8.2585e+06   3.83e-30
  8.4986e+06   3.42e-30
  8.7457e+06   3.07e-30
  9.0000e+06   2.79e-30
