#  E [GeV]   # per interaction  [GeV^{-1}]
  3.0000e+01   1.15e+00
  3.1141e+01   1.10e+00
  3.2326e+01   1.06e+00
  3.3556e+01   1.01e+00
  3.4832e+01   9.64e-01
  3.6157e+01   9.21e-01
  3.7533e+01   8.80e-01
  3.8961e+01   8.41e-01
  4.0443e+01   8.03e-01
  4.1982e+01   7.67e-01
  4.3579e+01   7.32e-01
  4.5237e+01   6.99e-01
  4.6958e+01   6.67e-01
  4.8744e+01   6.36e-01
  5.0598e+01   6.07e-01
  5.2523e+01   5.79e-01
  5.4521e+01   5.52e-01
  5.6596e+01   5.27e-01
  5.8749e+01   5.02e-01
  6.0984e+01   4.79e-01
  6.3304e+01   4.56e-01
  6.5712e+01   4.35e-01
  6.8212e+01   4.14e-01
  7.0807e+01   3.95e-01
  7.3500e+01   3.76e-01
  7.6297e+01   3.58e-01
  7.9199e+01   3.41e-01
  8.2212e+01   3.24e-01
  8.5340e+01   3.08e-01
  8.8586e+01   2.93e-01
  9.1956e+01   2.79e-01
  9.5455e+01   2.65e-01
  9.9086e+01   2.52e-01
  1.0286e+02   2.40e-01
  1.0677e+02   2.28e-01
  1.1083e+02   2.17e-01
  1.1505e+02   2.06e-01
  1.1942e+02   1.95e-01
  1.2397e+02   1.86e-01
  1.2868e+02   1.76e-01
  1.3358e+02   1.67e-01
  1.3866e+02   1.58e-01
  1.4394e+02   1.50e-01
  1.4941e+02   1.42e-01
  1.5509e+02   1.35e-01
  1.6100e+02   1.28e-01
  1.6712e+02   1.21e-01
  1.7348e+02   1.15e-01
  1.8008e+02   1.09e-01
  1.8693e+02   1.03e-01
  1.9404e+02   9.70e-02
  2.0142e+02   9.17e-02
  2.0908e+02   8.67e-02
  2.1704e+02   8.18e-02
  2.2529e+02   7.72e-02
  2.3387e+02   7.29e-02
  2.4276e+02   6.87e-02
  2.5200e+02   6.47e-02
  2.6158e+02   6.10e-02
  2.7154e+02   5.74e-02
  2.8187e+02   5.40e-02
  2.9259e+02   5.08e-02
  3.0372e+02   4.77e-02
  3.1527e+02   4.48e-02
  3.2727e+02   4.20e-02
  3.3972e+02   3.94e-02
  3.5264e+02   3.69e-02
  3.6606e+02   3.45e-02
  3.7998e+02   3.23e-02
  3.9444e+02   3.02e-02
  4.0945e+02   2.82e-02
  4.2502e+02   2.63e-02
  4.4119e+02   2.45e-02
  4.5798e+02   2.29e-02
  4.7540e+02   2.13e-02
  4.9348e+02   1.98e-02
  5.1226e+02   1.84e-02
  5.3175e+02   1.71e-02
  5.5198e+02   1.59e-02
  5.7297e+02   1.47e-02
  5.9477e+02   1.37e-02
  6.1740e+02   1.27e-02
  6.4089e+02   1.17e-02
  6.6527e+02   1.09e-02
  6.9058e+02   1.00e-02
  7.1685e+02   9.29e-03
  7.4412e+02   8.58e-03
  7.7243e+02   7.93e-03
  8.0181e+02   7.32e-03
  8.3232e+02   6.75e-03
  8.6398e+02   6.23e-03
  8.9685e+02   5.74e-03
  9.3097e+02   5.29e-03
  9.6638e+02   4.87e-03
  1.0031e+03   4.49e-03
  1.0413e+03   4.13e-03
  1.0809e+03   3.80e-03
  1.1220e+03   3.50e-03
  1.1647e+03   3.22e-03
  1.2090e+03   2.95e-03
  1.2550e+03   2.72e-03
  1.3028e+03   2.49e-03
  1.3523e+03   2.29e-03
  1.4038e+03   2.10e-03
  1.4572e+03   1.93e-03
  1.5126e+03   1.76e-03
  1.5702e+03   1.62e-03
  1.6299e+03   1.48e-03
  1.6919e+03   1.35e-03
  1.7563e+03   1.24e-03
  1.8231e+03   1.13e-03
  1.8925e+03   1.03e-03
  1.9645e+03   9.45e-04
  2.0392e+03   8.62e-04
  2.1168e+03   7.86e-04
  2.1973e+03   7.16e-04
  2.2809e+03   6.52e-04
  2.3677e+03   5.93e-04
  2.4577e+03   5.38e-04
  2.5512e+03   4.89e-04
  2.6483e+03   4.43e-04
  2.7490e+03   4.00e-04
  2.8536e+03   3.63e-04
  2.9622e+03   3.27e-04
  3.0749e+03   2.95e-04
  3.1918e+03   2.66e-04
  3.3133e+03   2.39e-04
  3.4393e+03   2.14e-04
  3.5702e+03   1.93e-04
  3.7060e+03   1.73e-04
  3.8470e+03   1.54e-04
  3.9933e+03   1.38e-04
  4.1452e+03   1.23e-04
  4.3029e+03   1.09e-04
  4.4666e+03   9.68e-05
  4.6366e+03   8.58e-05
  4.8129e+03   7.55e-05
  4.9960e+03   6.69e-05
  5.1861e+03   5.88e-05
  5.3834e+03   5.14e-05
  5.5882e+03   4.51e-05
  5.8008e+03   3.94e-05
  6.0215e+03   3.42e-05
  6.2506e+03   2.98e-05
  6.4883e+03   2.58e-05
  6.7352e+03   2.22e-05
  6.9914e+03   1.91e-05
  7.2574e+03   1.64e-05
  7.5335e+03   1.40e-05
  7.8201e+03   1.19e-05
  8.1176e+03   1.02e-05
  8.4264e+03   8.55e-06
  8.7470e+03   7.19e-06
  9.0797e+03   6.04e-06
  9.4251e+03   5.02e-06
  9.7837e+03   4.15e-06
  1.0156e+04   3.44e-06
  1.0542e+04   2.81e-06
  1.0943e+04   2.27e-06
  1.1360e+04   1.85e-06
  1.1792e+04   1.48e-06
  1.2240e+04   1.17e-06
  1.2706e+04   9.31e-07
  1.3189e+04   7.26e-07
  1.3691e+04   5.57e-07
  1.4212e+04   4.29e-07
  1.4753e+04   3.24e-07
  1.5314e+04   2.38e-07
  1.5897e+04   1.76e-07
  1.6501e+04   1.27e-07
  1.7129e+04   8.82e-08
  1.7781e+04   6.12e-08
  1.8457e+04   4.11e-08
  1.9159e+04   2.64e-08
  1.9888e+04   1.68e-08
  2.0645e+04   1.02e-08
  2.1430e+04   5.82e-09
  2.2245e+04   3.21e-09
  2.3092e+04   1.66e-09
  2.3970e+04   7.90e-10
  2.4882e+04   3.48e-10
  2.5829e+04   1.39e-10
  2.6811e+04   4.85e-11
  2.7831e+04   1.48e-11
  2.8890e+04   3.79e-12
  2.9989e+04   7.85e-13
  3.1130e+04   1.27e-13
  3.2314e+04   1.52e-14
  3.3544e+04   1.25e-15
  3.4820e+04   6.54e-17
  3.6144e+04   1.96e-18
  3.7519e+04   2.91e-20
  3.8947e+04   1.80e-22
  4.0428e+04   3.72e-25
  4.1966e+04   1.91e-28
  4.3563e+04   1.65e-32
  4.5220e+04   1.44e-37
  4.6941e+04   6.42e-44
  4.8726e+04   1.25e-47
  5.0580e+04   1.15e-47
