#  E [GeV]   # per interaction  [GeV^{-1}]
  3.0000e+01   2.62e-02
  3.1123e+01   2.52e-02
  3.2288e+01   2.42e-02
  3.3497e+01   2.33e-02
  3.4751e+01   2.24e-02
  3.6051e+01   2.15e-02
  3.7401e+01   2.07e-02
  3.8801e+01   1.99e-02
  4.0253e+01   1.91e-02
  4.1760e+01   1.83e-02
  4.3324e+01   1.76e-02
  4.4945e+01   1.69e-02
  4.6628e+01   1.62e-02
  4.8373e+01   1.56e-02
  5.0184e+01   1.49e-02
  5.2063e+01   1.43e-02
  5.4011e+01   1.37e-02
  5.6033e+01   1.32e-02
  5.8131e+01   1.26e-02
  6.0307e+01   1.21e-02
  6.2564e+01   1.16e-02
  6.4906e+01   1.11e-02
  6.7336e+01   1.06e-02
  6.9857e+01   1.02e-02
  7.2472e+01   9.71e-03
  7.5184e+01   9.29e-03
  7.7999e+01   8.88e-03
  8.0919e+01   8.49e-03
  8.3948e+01   8.12e-03
  8.7090e+01   7.75e-03
  9.0350e+01   7.41e-03
  9.3732e+01   7.07e-03
  9.7241e+01   6.75e-03
  1.0088e+02   6.44e-03
  1.0466e+02   6.15e-03
  1.0858e+02   5.86e-03
  1.1264e+02   5.59e-03
  1.1686e+02   5.33e-03
  1.2123e+02   5.08e-03
  1.2577e+02   4.84e-03
  1.3048e+02   4.61e-03
  1.3536e+02   4.38e-03
  1.4043e+02   4.17e-03
  1.4568e+02   3.97e-03
  1.5114e+02   3.77e-03
  1.5680e+02   3.59e-03
  1.6266e+02   3.41e-03
  1.6875e+02   3.24e-03
  1.7507e+02   3.07e-03
  1.8162e+02   2.92e-03
  1.8842e+02   2.77e-03
  1.9548e+02   2.62e-03
  2.0279e+02   2.49e-03
  2.1039e+02   2.36e-03
  2.1826e+02   2.23e-03
  2.2643e+02   2.11e-03
  2.3491e+02   2.00e-03
  2.4370e+02   1.89e-03
  2.5282e+02   1.79e-03
  2.6229e+02   1.69e-03
  2.7211e+02   1.59e-03
  2.8229e+02   1.50e-03
  2.9286e+02   1.42e-03
  3.0382e+02   1.34e-03
  3.1519e+02   1.26e-03
  3.2699e+02   1.19e-03
  3.3923e+02   1.12e-03
  3.5193e+02   1.05e-03
  3.6511e+02   9.88e-04
  3.7877e+02   9.28e-04
  3.9295e+02   8.72e-04
  4.0766e+02   8.18e-04
  4.2292e+02   7.67e-04
  4.3875e+02   7.19e-04
  4.5518e+02   6.74e-04
  4.7222e+02   6.31e-04
  4.8989e+02   5.91e-04
  5.0823e+02   5.53e-04
  5.2726e+02   5.17e-04
  5.4699e+02   4.83e-04
  5.6747e+02   4.52e-04
  5.8871e+02   4.22e-04
  6.1075e+02   3.94e-04
  6.3361e+02   3.68e-04
  6.5733e+02   3.43e-04
  6.8194e+02   3.20e-04
  7.0746e+02   2.98e-04
  7.3395e+02   2.78e-04
  7.6142e+02   2.59e-04
  7.8992e+02   2.42e-04
  8.1949e+02   2.26e-04
  8.5017e+02   2.10e-04
  8.8199e+02   1.96e-04
  9.1501e+02   1.83e-04
  9.4926e+02   1.71e-04
  9.8479e+02   1.59e-04
  1.0217e+03   1.49e-04
  1.0599e+03   1.39e-04
  1.0996e+03   1.29e-04
  1.1407e+03   1.21e-04
  1.1834e+03   1.13e-04
  1.2277e+03   1.05e-04
  1.2737e+03   9.86e-05
  1.3214e+03   9.22e-05
  1.3708e+03   8.62e-05
  1.4222e+03   8.07e-05
  1.4754e+03   7.56e-05
  1.5306e+03   7.07e-05
  1.5879e+03   6.63e-05
  1.6474e+03   6.21e-05
  1.7090e+03   5.82e-05
  1.7730e+03   5.47e-05
  1.8394e+03   5.13e-05
  1.9082e+03   4.81e-05
  1.9797e+03   4.52e-05
  2.0538e+03   4.25e-05
  2.1306e+03   3.99e-05
  2.2104e+03   3.75e-05
  2.2931e+03   3.53e-05
  2.3790e+03   3.32e-05
  2.4680e+03   3.13e-05
  2.5604e+03   2.94e-05
  2.6563e+03   2.77e-05
  2.7557e+03   2.61e-05
  2.8589e+03   2.46e-05
  2.9659e+03   2.31e-05
  3.0769e+03   2.18e-05
  3.1921e+03   2.05e-05
  3.3116e+03   1.93e-05
  3.4355e+03   1.82e-05
  3.5641e+03   1.72e-05
  3.6976e+03   1.62e-05
  3.8360e+03   1.52e-05
  3.9796e+03   1.43e-05
  4.1285e+03   1.35e-05
  4.2831e+03   1.27e-05
  4.4434e+03   1.19e-05
  4.6097e+03   1.12e-05
  4.7823e+03   1.05e-05
  4.9613e+03   9.86e-06
  5.1470e+03   9.24e-06
  5.3397e+03   8.66e-06
  5.5396e+03   8.11e-06
  5.7470e+03   7.58e-06
  5.9621e+03   7.07e-06
  6.1853e+03   6.60e-06
  6.4168e+03   6.14e-06
  6.6570e+03   5.71e-06
  6.9062e+03   5.30e-06
  7.1647e+03   4.90e-06
  7.4329e+03   4.53e-06
  7.7112e+03   4.17e-06
  7.9998e+03   3.83e-06
  8.2993e+03   3.51e-06
  8.6100e+03   3.21e-06
  8.9323e+03   2.92e-06
  9.2666e+03   2.65e-06
  9.6135e+03   2.39e-06
  9.9734e+03   2.15e-06
  1.0347e+04   1.92e-06
  1.0734e+04   1.70e-06
  1.1136e+04   1.50e-06
  1.1553e+04   1.32e-06
  1.1985e+04   1.15e-06
  1.2434e+04   9.89e-07
  1.2899e+04   8.45e-07
  1.3382e+04   7.15e-07
  1.3883e+04   5.98e-07
  1.4403e+04   4.93e-07
  1.4942e+04   4.01e-07
  1.5501e+04   3.21e-07
  1.6081e+04   2.52e-07
  1.6683e+04   1.94e-07
  1.7308e+04   1.46e-07
  1.7956e+04   1.07e-07
  1.8628e+04   7.60e-08
  1.9325e+04   5.22e-08
  2.0049e+04   3.46e-08
  2.0799e+04   2.19e-08
  2.1578e+04   1.31e-08
  2.2386e+04   7.46e-09
  2.3224e+04   3.95e-09
  2.4093e+04   1.93e-09
  2.4995e+04   8.62e-10
  2.5930e+04   3.45e-10
  2.6901e+04   1.22e-10
  2.7908e+04   3.68e-11
  2.8953e+04   9.30e-12
  3.0037e+04   1.90e-12
  3.1161e+04   2.98e-13
  3.2327e+04   3.44e-14
  3.3537e+04   2.72e-15
  3.4793e+04   1.35e-16
  3.6095e+04   3.80e-18
  3.7446e+04   5.30e-20
  3.8848e+04   3.08e-22
  4.0302e+04   5.98e-25
  4.1811e+04   2.90e-28
  4.3376e+04   2.43e-32
  4.5000e+04   2.13e-37
