#  E [MeV]   Flux [# cm^{-2} s^{-1}  MeV^{-1}]
  3.0000e+04   1.98e-19
  3.0943e+04   1.90e-19
  3.1916e+04   1.83e-19
  3.2920e+04   1.76e-19
  3.3955e+04   1.69e-19
  3.5023e+04   1.62e-19
  3.6124e+04   1.55e-19
  3.7260e+04   1.49e-19
  3.8432e+04   1.43e-19
  3.9640e+04   1.37e-19
  4.0887e+04   1.32e-19
  4.2172e+04   1.26e-19
  4.3499e+04   1.21e-19
  4.4866e+04   1.16e-19
  4.6277e+04   1.11e-19
  4.7732e+04   1.07e-19
  4.9233e+04   1.02e-19
  5.0781e+04   9.79e-20
  5.2378e+04   9.38e-20
  5.4025e+04   8.98e-20
  5.5724e+04   8.60e-20
  5.7476e+04   8.23e-20
  5.9284e+04   7.88e-20
  6.1148e+04   7.54e-20
  6.3071e+04   7.21e-20
  6.5054e+04   6.90e-20
  6.7100e+04   6.60e-20
  6.9210e+04   6.31e-20
  7.1386e+04   6.03e-20
  7.3631e+04   5.76e-20
  7.5946e+04   5.50e-20
  7.8334e+04   5.26e-20
  8.0797e+04   5.02e-20
  8.3338e+04   4.79e-20
  8.5959e+04   4.57e-20
  8.8662e+04   4.36e-20
  9.1450e+04   4.16e-20
  9.4325e+04   3.96e-20
  9.7291e+04   3.78e-20
  1.0035e+05   3.60e-20
  1.0351e+05   3.43e-20
  1.0676e+05   3.26e-20
  1.1012e+05   3.11e-20
  1.1358e+05   2.95e-20
  1.1715e+05   2.81e-20
  1.2084e+05   2.67e-20
  1.2464e+05   2.54e-20
  1.2856e+05   2.41e-20
  1.3260e+05   2.29e-20
  1.3677e+05   2.17e-20
  1.4107e+05   2.06e-20
  1.4550e+05   1.96e-20
  1.5008e+05   1.86e-20
  1.5480e+05   1.76e-20
  1.5967e+05   1.67e-20
  1.6469e+05   1.58e-20
  1.6987e+05   1.49e-20
  1.7521e+05   1.41e-20
  1.8072e+05   1.34e-20
  1.8640e+05   1.26e-20
  1.9226e+05   1.20e-20
  1.9831e+05   1.13e-20
  2.0454e+05   1.07e-20
  2.1097e+05   1.01e-20
  2.1761e+05   9.49e-21
  2.2445e+05   8.95e-21
  2.3151e+05   8.43e-21
  2.3879e+05   7.93e-21
  2.4630e+05   7.47e-21
  2.5404e+05   7.02e-21
  2.6203e+05   6.60e-21
  2.7027e+05   6.20e-21
  2.7877e+05   5.82e-21
  2.8753e+05   5.46e-21
  2.9657e+05   5.11e-21
  3.0590e+05   4.79e-21
  3.1552e+05   4.48e-21
  3.2544e+05   4.19e-21
  3.3567e+05   3.91e-21
  3.4623e+05   3.66e-21
  3.5712e+05   3.41e-21
  3.6835e+05   3.18e-21
  3.7993e+05   2.96e-21
  3.9188e+05   2.75e-21
  4.0420e+05   2.56e-21
  4.1691e+05   2.37e-21
  4.3002e+05   2.20e-21
  4.4354e+05   2.04e-21
  4.5749e+05   1.89e-21
  4.7187e+05   1.75e-21
  4.8671e+05   1.62e-21
  5.0202e+05   1.50e-21
  5.1780e+05   1.38e-21
  5.3409e+05   1.27e-21
  5.5088e+05   1.17e-21
  5.6820e+05   1.08e-21
  5.8607e+05   9.95e-22
  6.0450e+05   9.14e-22
  6.2351e+05   8.41e-22
  6.4311e+05   7.72e-22
  6.6334e+05   7.07e-22
  6.8419e+05   6.48e-22
  7.0571e+05   5.93e-22
  7.2790e+05   5.42e-22
  7.5079e+05   4.95e-22
  7.7440e+05   4.52e-22
  7.9875e+05   4.13e-22
  8.2387e+05   3.76e-22
  8.4977e+05   3.42e-22
  8.7649e+05   3.12e-22
  9.0405e+05   2.84e-22
  9.3248e+05   2.58e-22
  9.6180e+05   2.35e-22
  9.9205e+05   2.14e-22
  1.0232e+06   1.94e-22
  1.0554e+06   1.75e-22
  1.0886e+06   1.59e-22
  1.1228e+06   1.45e-22
  1.1581e+06   1.31e-22
  1.1946e+06   1.18e-22
  1.2321e+06   1.07e-22
  1.2709e+06   9.70e-23
  1.3108e+06   8.75e-23
  1.3521e+06   7.90e-23
  1.3946e+06   7.15e-23
  1.4384e+06   6.44e-23
  1.4837e+06   5.79e-23
  1.5303e+06   5.22e-23
  1.5784e+06   4.71e-23
  1.6281e+06   4.24e-23
  1.6793e+06   3.79e-23
  1.7321e+06   3.42e-23
  1.7865e+06   3.08e-23
  1.8427e+06   2.76e-23
  1.9006e+06   2.46e-23
  1.9604e+06   2.22e-23
  2.0221e+06   1.99e-23
  2.0856e+06   1.77e-23
  2.1512e+06   1.59e-23
  2.2189e+06   1.42e-23
  2.2886e+06   1.27e-23
  2.3606e+06   1.13e-23
  2.4348e+06   1.01e-23
  2.5114e+06   9.01e-24
  2.5904e+06   8.01e-24
  2.6718e+06   7.08e-24
  2.7558e+06   6.33e-24
  2.8425e+06   5.63e-24
  2.9319e+06   4.98e-24
  3.0241e+06   4.39e-24
  3.1192e+06   3.92e-24
  3.2173e+06   3.47e-24
  3.3184e+06   3.05e-24
  3.4228e+06   2.69e-24
  3.5304e+06   2.39e-24
  3.6414e+06   2.11e-24
  3.7559e+06   1.84e-24
  3.8740e+06   1.63e-24
  3.9958e+06   1.44e-24
  4.1215e+06   1.27e-24
  4.2511e+06   1.11e-24
  4.3848e+06   9.83e-25
  4.5227e+06   8.66e-25
  4.6649e+06   7.57e-25
  4.8116e+06   6.64e-25
  4.9629e+06   5.88e-25
  5.1189e+06   5.17e-25
  5.2799e+06   4.50e-25
  5.4459e+06   3.98e-25
  5.6171e+06   3.52e-25
  5.7938e+06   3.10e-25
  5.9760e+06   2.70e-25
  6.1639e+06   2.41e-25
  6.3577e+06   2.13e-25
  6.5576e+06   1.88e-25
  6.7638e+06   1.65e-25
  6.9765e+06   1.47e-25
  7.1959e+06   1.30e-25
  7.4222e+06   1.14e-25
  7.6556e+06   1.00e-25
  7.8963e+06   8.87e-26
  8.1446e+06   7.80e-26
  8.4007e+06   6.81e-26
  8.6649e+06   6.00e-26
  8.9373e+06   5.26e-26
  9.2184e+06   4.59e-26
  9.5082e+06   3.98e-26
  9.8072e+06   3.47e-26
  1.0116e+07   3.00e-26
  1.0434e+07   2.58e-26
  1.0762e+07   2.20e-26
  1.1100e+07   1.87e-26
  1.1449e+07   1.57e-26
  1.1809e+07   1.31e-26
  1.2181e+07   1.08e-26
  1.2564e+07   8.80e-27
  1.2959e+07   7.08e-27
  1.3366e+07   5.62e-27
  1.3786e+07   4.51e-27
  1.4220e+07   3.58e-27
