#  E [MeV]   Flux [# cm^{-2} s^{-1}  MeV^{-1}]
  3.0000e+04   2.56e-27
  3.1232e+04   2.46e-27
  3.2514e+04   2.37e-27
  3.3849e+04   2.28e-27
  3.5238e+04   2.19e-27
  3.6685e+04   2.10e-27
  3.8191e+04   2.02e-27
  3.9759e+04   1.94e-27
  4.1391e+04   1.86e-27
  4.3090e+04   1.78e-27
  4.4859e+04   1.71e-27
  4.6701e+04   1.64e-27
  4.8618e+04   1.57e-27
  5.0614e+04   1.51e-27
  5.2692e+04   1.45e-27
  5.4855e+04   1.39e-27
  5.7107e+04   1.33e-27
  5.9451e+04   1.27e-27
  6.1892e+04   1.22e-27
  6.4433e+04   1.17e-27
  6.7078e+04   1.12e-27
  6.9832e+04   1.07e-27
  7.2699e+04   1.02e-27
  7.5683e+04   9.78e-28
  7.8790e+04   9.35e-28
  8.2025e+04   8.94e-28
  8.5392e+04   8.54e-28
  8.8898e+04   8.16e-28
  9.2547e+04   7.79e-28
  9.6347e+04   7.44e-28
  1.0030e+05   7.10e-28
  1.0442e+05   6.77e-28
  1.0871e+05   6.46e-28
  1.1317e+05   6.16e-28
  1.1782e+05   5.87e-28
  1.2265e+05   5.60e-28
  1.2769e+05   5.33e-28
  1.3293e+05   5.08e-28
  1.3839e+05   4.83e-28
  1.4407e+05   4.60e-28
  1.4998e+05   4.37e-28
  1.5614e+05   4.16e-28
  1.6255e+05   3.95e-28
  1.6922e+05   3.75e-28
  1.7617e+05   3.56e-28
  1.8340e+05   3.38e-28
  1.9093e+05   3.21e-28
  1.9877e+05   3.04e-28
  2.0693e+05   2.88e-28
  2.1543e+05   2.73e-28
  2.2427e+05   2.58e-28
  2.3348e+05   2.44e-28
  2.4306e+05   2.31e-28
  2.5304e+05   2.18e-28
  2.6343e+05   2.06e-28
  2.7424e+05   1.95e-28
  2.8550e+05   1.84e-28
  2.9722e+05   1.73e-28
  3.0942e+05   1.63e-28
  3.2213e+05   1.54e-28
  3.3535e+05   1.45e-28
  3.4912e+05   1.36e-28
  3.6345e+05   1.28e-28
  3.7837e+05   1.20e-28
  3.9390e+05   1.13e-28
  4.1008e+05   1.06e-28
  4.2691e+05   9.90e-29
  4.4444e+05   9.28e-29
  4.6268e+05   8.68e-29
  4.8168e+05   8.12e-29
  5.0145e+05   7.59e-29
  5.2204e+05   7.09e-29
  5.4347e+05   6.62e-29
  5.6578e+05   6.18e-29
  5.8901e+05   5.76e-29
  6.1319e+05   5.37e-29
  6.3836e+05   5.00e-29
  6.6457e+05   4.66e-29
  6.9185e+05   4.34e-29
  7.2025e+05   4.04e-29
  7.4982e+05   3.76e-29
  7.8061e+05   3.49e-29
  8.1265e+05   3.25e-29
  8.4601e+05   3.02e-29
  8.8075e+05   2.81e-29
  9.1690e+05   2.61e-29
  9.5455e+05   2.42e-29
  9.9373e+05   2.25e-29
  1.0345e+06   2.09e-29
  1.0770e+06   1.94e-29
  1.1212e+06   1.81e-29
  1.1672e+06   1.68e-29
  1.2152e+06   1.56e-29
  1.2650e+06   1.45e-29
  1.3170e+06   1.35e-29
  1.3711e+06   1.25e-29
  1.4273e+06   1.17e-29
  1.4859e+06   1.09e-29
  1.5469e+06   1.01e-29
  1.6104e+06   9.40e-30
  1.6766e+06   8.75e-30
  1.7454e+06   8.14e-30
  1.8170e+06   7.59e-30
  1.8916e+06   7.06e-30
  1.9693e+06   6.58e-30
  2.0501e+06   6.13e-30
  2.1343e+06   5.71e-30
  2.2219e+06   5.32e-30
  2.3131e+06   4.96e-30
  2.4081e+06   4.62e-30
  2.5070e+06   4.30e-30
  2.6099e+06   4.01e-30
  2.7170e+06   3.73e-30
  2.8286e+06   3.48e-30
  2.9447e+06   3.24e-30
  3.0656e+06   3.02e-30
  3.1914e+06   2.82e-30
  3.3225e+06   2.63e-30
  3.4589e+06   2.45e-30
  3.6008e+06   2.28e-30
  3.7487e+06   2.12e-30
  3.9026e+06   1.97e-30
  4.0628e+06   1.84e-30
  4.2296e+06   1.71e-30
  4.4032e+06   1.59e-30
  4.5840e+06   1.48e-30
  4.7722e+06   1.37e-30
  4.9681e+06   1.27e-30
  5.1720e+06   1.18e-30
  5.3844e+06   1.09e-30
  5.6054e+06   1.01e-30
  5.8355e+06   9.35e-31
  6.0751e+06   8.63e-31
  6.3245e+06   7.97e-31
  6.5841e+06   7.34e-31
  6.8544e+06   6.75e-31
  7.1358e+06   6.20e-31
  7.4288e+06   5.68e-31
  7.7338e+06   5.19e-31
  8.0513e+06   4.74e-31
  8.3818e+06   4.31e-31
  8.7259e+06   3.91e-31
  9.0841e+06   3.54e-31
  9.4571e+06   3.19e-31
  9.8453e+06   2.86e-31
  1.0249e+07   2.55e-31
  1.0670e+07   2.27e-31
  1.1108e+07   2.00e-31
  1.1564e+07   1.76e-31
  1.2039e+07   1.53e-31
  1.2533e+07   1.32e-31
  1.3048e+07   1.13e-31
  1.3584e+07   9.57e-32
  1.4141e+07   8.01e-32
  1.4722e+07   6.61e-32
  1.5326e+07   5.37e-32
  1.5955e+07   4.29e-32
  1.6610e+07   3.36e-32
  1.7292e+07   2.57e-32
  1.8002e+07   1.92e-32
  1.8741e+07   1.39e-32
  1.9511e+07   9.69e-33
  2.0312e+07   6.51e-33
  2.1145e+07   4.17e-33
  2.2013e+07   2.53e-33
  2.2917e+07   1.43e-33
  2.3858e+07   7.56e-34
  2.4837e+07   3.64e-34
  2.5857e+07   1.57e-34
  2.6919e+07   5.99e-35
  2.8024e+07   1.96e-35
  2.9174e+07   5.31e-36
  3.0372e+07   1.15e-36
  3.1619e+07   1.89e-37
  3.2917e+07   2.21e-38
  3.4268e+07   1.70e-39
  3.5675e+07   7.74e-41
  3.7140e+07   1.82e-42
  3.8664e+07   1.85e-44
  4.0252e+07   6.47e-47
  4.1904e+07   5.72e-50
  4.3624e+07   8.45e-54
  4.5415e+07   1.20e-58
  4.7280e+07   7.58e-65
  4.9221e+07   1.11e-71
  5.1241e+07   1.05e-71
  5.3345e+07   9.91e-72
  5.5535e+07   9.36e-72
  5.7815e+07   8.84e-72
  6.0188e+07   8.34e-72
  6.2659e+07   7.86e-72
  6.5232e+07   7.40e-72
  6.7910e+07   6.97e-72
  7.0698e+07   6.56e-72
  7.3600e+07   6.17e-72
  7.6621e+07   5.79e-72
  7.9767e+07   5.43e-72
  8.3042e+07   5.08e-72
  8.6451e+07   4.76e-72
  9.0000e+07   4.48e-72
