#  E [MeV]   Flux [# cm^{-2} s^{-1}  MeV^{-1}]
  3.0000e+04   1.84e-23
  3.0782e+04   1.78e-23
  3.1585e+04   1.73e-23
  3.2409e+04   1.67e-23
  3.3255e+04   1.61e-23
  3.4122e+04   1.56e-23
  3.5012e+04   1.51e-23
  3.5925e+04   1.46e-23
  3.6862e+04   1.41e-23
  3.7824e+04   1.36e-23
  3.8810e+04   1.31e-23
  3.9822e+04   1.27e-23
  4.0861e+04   1.22e-23
  4.1927e+04   1.18e-23
  4.3021e+04   1.14e-23
  4.4143e+04   1.10e-23
  4.5294e+04   1.06e-23
  4.6475e+04   1.02e-23
  4.7688e+04   9.86e-24
  4.8931e+04   9.50e-24
  5.0208e+04   9.15e-24
  5.1517e+04   8.82e-24
  5.2861e+04   8.49e-24
  5.4240e+04   8.17e-24
  5.5654e+04   7.87e-24
  5.7106e+04   7.57e-24
  5.8596e+04   7.29e-24
  6.0124e+04   7.01e-24
  6.1692e+04   6.74e-24
  6.3301e+04   6.48e-24
  6.4952e+04   6.23e-24
  6.6647e+04   5.98e-24
  6.8385e+04   5.75e-24
  7.0169e+04   5.52e-24
  7.1999e+04   5.30e-24
  7.3877e+04   5.09e-24
  7.5804e+04   4.88e-24
  7.7781e+04   4.69e-24
  7.9810e+04   4.50e-24
  8.1891e+04   4.31e-24
  8.4027e+04   4.13e-24
  8.6219e+04   3.96e-24
  8.8468e+04   3.80e-24
  9.0775e+04   3.64e-24
  9.3143e+04   3.49e-24
  9.5572e+04   3.34e-24
  9.8065e+04   3.20e-24
  1.0062e+05   3.06e-24
  1.0325e+05   2.93e-24
  1.0594e+05   2.80e-24
  1.0870e+05   2.68e-24
  1.1154e+05   2.56e-24
  1.1445e+05   2.45e-24
  1.1743e+05   2.34e-24
  1.2050e+05   2.24e-24
  1.2364e+05   2.14e-24
  1.2686e+05   2.04e-24
  1.3017e+05   1.94e-24
  1.3357e+05   1.85e-24
  1.3705e+05   1.77e-24
  1.4063e+05   1.69e-24
  1.4429e+05   1.61e-24
  1.4806e+05   1.53e-24
  1.5192e+05   1.46e-24
  1.5588e+05   1.39e-24
  1.5995e+05   1.32e-24
  1.6412e+05   1.25e-24
  1.6840e+05   1.19e-24
  1.7279e+05   1.13e-24
  1.7730e+05   1.08e-24
  1.8193e+05   1.02e-24
  1.8667e+05   9.71e-25
  1.9154e+05   9.22e-25
  1.9654e+05   8.74e-25
  2.0166e+05   8.29e-25
  2.0692e+05   7.85e-25
  2.1232e+05   7.44e-25
  2.1786e+05   7.04e-25
  2.2354e+05   6.67e-25
  2.2937e+05   6.31e-25
  2.3535e+05   5.96e-25
  2.4149e+05   5.63e-25
  2.4779e+05   5.32e-25
  2.5425e+05   5.02e-25
  2.6088e+05   4.73e-25
  2.6769e+05   4.46e-25
  2.7467e+05   4.20e-25
  2.8184e+05   3.96e-25
  2.8919e+05   3.72e-25
  2.9673e+05   3.50e-25
  3.0447e+05   3.29e-25
  3.1241e+05   3.09e-25
  3.2056e+05   2.90e-25
  3.2892e+05   2.72e-25
  3.3750e+05   2.55e-25
  3.4630e+05   2.39e-25
  3.5533e+05   2.24e-25
  3.6460e+05   2.10e-25
  3.7411e+05   1.96e-25
  3.8387e+05   1.83e-25
  3.9388e+05   1.71e-25
  4.0416e+05   1.60e-25
  4.1470e+05   1.49e-25
  4.2551e+05   1.39e-25
  4.3661e+05   1.29e-25
  4.4800e+05   1.20e-25
  4.5969e+05   1.12e-25
  4.7168e+05   1.04e-25
  4.8398e+05   9.67e-26
  4.9660e+05   8.98e-26
  5.0956e+05   8.32e-26
  5.2285e+05   7.70e-26
  5.3648e+05   7.13e-26
  5.5048e+05   6.61e-26
  5.6483e+05   6.11e-26
  5.7957e+05   5.64e-26
  5.9468e+05   5.20e-26
  6.1020e+05   4.81e-26
  6.2611e+05   4.44e-26
  6.4244e+05   4.09e-26
  6.5920e+05   3.76e-26
  6.7639e+05   3.46e-26
  6.9403e+05   3.19e-26
  7.1214e+05   2.93e-26
  7.3071e+05   2.69e-26
  7.4977e+05   2.46e-26
  7.6933e+05   2.27e-26
  7.8939e+05   2.08e-26
  8.0998e+05   1.90e-26
  8.3111e+05   1.74e-26
  8.5279e+05   1.59e-26
  8.7503e+05   1.46e-26
  8.9785e+05   1.34e-26
  9.2127e+05   1.22e-26
  9.4530e+05   1.11e-26
  9.6996e+05   1.01e-26
  9.9526e+05   9.26e-27
  1.0212e+06   8.43e-27
  1.0479e+06   7.64e-27
  1.0752e+06   6.96e-27
  1.1032e+06   6.35e-27
  1.1320e+06   5.77e-27
  1.1615e+06   5.22e-27
  1.1918e+06   4.72e-27
  1.2229e+06   4.30e-27
  1.2548e+06   3.90e-27
  1.2875e+06   3.53e-27
  1.3211e+06   3.18e-27
  1.3556e+06   2.88e-27
  1.3909e+06   2.61e-27
  1.4272e+06   2.36e-27
  1.4644e+06   2.12e-27
  1.5026e+06   1.91e-27
  1.5418e+06   1.73e-27
  1.5820e+06   1.56e-27
  1.6233e+06   1.40e-27
  1.6657e+06   1.25e-27
  1.7091e+06   1.12e-27
  1.7537e+06   1.01e-27
  1.7994e+06   9.08e-28
  1.8464e+06   8.09e-28
  1.8945e+06   7.21e-28
  1.9439e+06   6.48e-28
  1.9946e+06   5.79e-28
  2.0467e+06   5.14e-28
  2.1000e+06   4.52e-28
  2.1548e+06   4.04e-28
  2.2110e+06   3.61e-28
  2.2687e+06   3.19e-28
  2.3279e+06   2.80e-28
  2.3886e+06   2.47e-28
  2.4509e+06   2.20e-28
  2.5148e+06   1.95e-28
  2.5804e+06   1.71e-28
  2.6477e+06   1.48e-28
  2.7168e+06   1.31e-28
  2.7876e+06   1.16e-28
  2.8603e+06   1.02e-28
  2.9349e+06   8.80e-29
  3.0115e+06   7.67e-29
  3.0900e+06   6.76e-29
  3.1706e+06   5.91e-29
  3.2533e+06   5.10e-29
  3.3382e+06   4.34e-29
  3.4253e+06   3.82e-29
  3.5146e+06   3.33e-29
  3.6063e+06   2.87e-29
  3.7003e+06   2.44e-29
  3.7969e+06   2.09e-29
  3.8959e+06   1.81e-29
  3.9975e+06   1.55e-29
  4.1018e+06   1.30e-29
  4.2088e+06   1.07e-29
  4.3185e+06   9.18e-30
  4.4312e+06   7.71e-30
  4.5467e+06   6.33e-30
  4.6653e+06   5.05e-30
  4.7870e+06   4.11e-30
  4.9119e+06   3.42e-30
  5.0400e+06   2.78e-30
