#  E [MeV]   Flux [# cm^{-2} s^{-1}  MeV^{-1}]
  3.0000e+04   2.43e-20
  3.1123e+04   2.33e-20
  3.2288e+04   2.24e-20
  3.3497e+04   2.15e-20
  3.4751e+04   2.07e-20
  3.6051e+04   1.99e-20
  3.7401e+04   1.91e-20
  3.8801e+04   1.83e-20
  4.0253e+04   1.76e-20
  4.1760e+04   1.69e-20
  4.3324e+04   1.62e-20
  4.4945e+04   1.56e-20
  4.6628e+04   1.50e-20
  4.8373e+04   1.44e-20
  5.0184e+04   1.38e-20
  5.2063e+04   1.32e-20
  5.4011e+04   1.27e-20
  5.6033e+04   1.22e-20
  5.8131e+04   1.17e-20
  6.0307e+04   1.12e-20
  6.2564e+04   1.08e-20
  6.4906e+04   1.03e-20
  6.7336e+04   9.89e-21
  6.9857e+04   9.48e-21
  7.2472e+04   9.09e-21
  7.5184e+04   8.71e-21
  7.7999e+04   8.35e-21
  8.0919e+04   8.00e-21
  8.3948e+04   7.67e-21
  8.7090e+04   7.34e-21
  9.0350e+04   7.03e-21
  9.3732e+04   6.73e-21
  9.7241e+04   6.45e-21
  1.0088e+05   6.17e-21
  1.0466e+05   5.90e-21
  1.0858e+05   5.65e-21
  1.1264e+05   5.40e-21
  1.1686e+05   5.17e-21
  1.2123e+05   4.94e-21
  1.2577e+05   4.72e-21
  1.3048e+05   4.51e-21
  1.3536e+05   4.31e-21
  1.4043e+05   4.11e-21
  1.4568e+05   3.93e-21
  1.5114e+05   3.75e-21
  1.5680e+05   3.57e-21
  1.6266e+05   3.41e-21
  1.6875e+05   3.25e-21
  1.7507e+05   3.09e-21
  1.8162e+05   2.95e-21
  1.8842e+05   2.81e-21
  1.9548e+05   2.67e-21
  2.0279e+05   2.54e-21
  2.1039e+05   2.41e-21
  2.1826e+05   2.29e-21
  2.2643e+05   2.18e-21
  2.3491e+05   2.07e-21
  2.4370e+05   1.96e-21
  2.5282e+05   1.86e-21
  2.6229e+05   1.77e-21
  2.7211e+05   1.67e-21
  2.8229e+05   1.58e-21
  2.9286e+05   1.50e-21
  3.0382e+05   1.42e-21
  3.1519e+05   1.34e-21
  3.2699e+05   1.26e-21
  3.3923e+05   1.19e-21
  3.5193e+05   1.13e-21
  3.6511e+05   1.06e-21
  3.7877e+05   9.99e-22
  3.9295e+05   9.41e-22
  4.0766e+05   8.85e-22
  4.2292e+05   8.32e-22
  4.3875e+05   7.82e-22
  4.5518e+05   7.34e-22
  4.7222e+05   6.88e-22
  4.8989e+05   6.45e-22
  5.0823e+05   6.05e-22
  5.2726e+05   5.66e-22
  5.4699e+05   5.30e-22
  5.6747e+05   4.95e-22
  5.8871e+05   4.63e-22
  6.1075e+05   4.32e-22
  6.3361e+05   4.03e-22
  6.5733e+05   3.76e-22
  6.8194e+05   3.51e-22
  7.0746e+05   3.27e-22
  7.3395e+05   3.05e-22
  7.6142e+05   2.84e-22
  7.8992e+05   2.64e-22
  8.1949e+05   2.46e-22
  8.5017e+05   2.28e-22
  8.8199e+05   2.12e-22
  9.1501e+05   1.97e-22
  9.4926e+05   1.83e-22
  9.8479e+05   1.70e-22
  1.0217e+06   1.58e-22
  1.0599e+06   1.47e-22
  1.0996e+06   1.36e-22
  1.1407e+06   1.26e-22
  1.1834e+06   1.17e-22
  1.2277e+06   1.08e-22
  1.2737e+06   1.00e-22
  1.3214e+06   9.29e-23
  1.3708e+06   8.59e-23
  1.4222e+06   7.96e-23
  1.4754e+06   7.36e-23
  1.5306e+06   6.81e-23
  1.5879e+06   6.30e-23
  1.6474e+06   5.83e-23
  1.7090e+06   5.38e-23
  1.7730e+06   4.97e-23
  1.8394e+06   4.59e-23
  1.9082e+06   4.24e-23
  1.9797e+06   3.91e-23
  2.0538e+06   3.61e-23
  2.1306e+06   3.32e-23
  2.2104e+06   3.06e-23
  2.2931e+06   2.82e-23
  2.3790e+06   2.59e-23
  2.4680e+06   2.38e-23
  2.5604e+06   2.19e-23
  2.6563e+06   2.01e-23
  2.7557e+06   1.84e-23
  2.8589e+06   1.69e-23
  2.9659e+06   1.55e-23
  3.0769e+06   1.41e-23
  3.1921e+06   1.29e-23
  3.3116e+06   1.18e-23
  3.4355e+06   1.08e-23
  3.5641e+06   9.82e-24
  3.6976e+06   8.94e-24
  3.8360e+06   8.11e-24
  3.9796e+06   7.38e-24
  4.1285e+06   6.69e-24
  4.2831e+06   6.05e-24
  4.4434e+06   5.47e-24
  4.6097e+06   4.94e-24
  4.7823e+06   4.44e-24
  4.9613e+06   3.99e-24
  5.1470e+06   3.59e-24
  5.3397e+06   3.21e-24
  5.5396e+06   2.87e-24
  5.7470e+06   2.56e-24
  5.9621e+06   2.28e-24
  6.1853e+06   2.02e-24
  6.4168e+06   1.79e-24
  6.6570e+06   1.58e-24
  6.9062e+06   1.39e-24
  7.1647e+06   1.22e-24
  7.4329e+06   1.07e-24
  7.7112e+06   9.32e-25
  7.9998e+06   8.14e-25
  8.2993e+06   7.05e-25
  8.6100e+06   6.06e-25
  8.9323e+06   5.22e-25
  9.2666e+06   4.47e-25
  9.6135e+06   3.78e-25
  9.9734e+06   3.21e-25
  1.0347e+07   2.70e-25
  1.0734e+07   2.25e-25
  1.1136e+07   1.87e-25
  1.1553e+07   1.55e-25
  1.1985e+07   1.26e-25
  1.2434e+07   1.02e-25
  1.2899e+07   8.26e-26
  1.3382e+07   6.55e-26
  1.3883e+07   5.15e-26
  1.4403e+07   4.02e-26
  1.4942e+07   3.08e-26
  1.5501e+07   2.32e-26
  1.6081e+07   1.74e-26
  1.6683e+07   1.27e-26
  1.7308e+07   9.00e-27
  1.7956e+07   6.34e-27
  1.8628e+07   4.31e-27
  1.9325e+07   2.82e-27
  2.0049e+07   1.82e-27
  2.0799e+07   1.12e-27
  2.1578e+07   6.54e-28
  2.2386e+07   3.73e-28
  2.3224e+07   1.99e-28
  2.4093e+07   9.77e-29
  2.4995e+07   4.56e-29
  2.5930e+07   1.94e-29
  2.6901e+07   7.32e-30
  2.7908e+07   2.49e-30
  2.8953e+07   7.34e-31
  3.0037e+07   1.79e-31
  3.1161e+07   3.57e-32
  3.2327e+07   5.60e-33
  3.3537e+07   6.37e-34
  3.4793e+07   5.02e-35
  3.6095e+07   2.56e-36
  3.7446e+07   7.35e-38
  3.8848e+07   1.04e-39
  4.0302e+07   6.22e-42
  4.1811e+07   1.21e-44
  4.3376e+07   5.63e-48
  4.5000e+07   4.59e-52
