#  E [MeV]   Flux [# cm^{-2} s^{-1}  MeV^{-1}]
  3.0000e+04   6.66e-25
  3.1051e+04   6.42e-25
  3.2139e+04   6.18e-25
  3.3266e+04   5.96e-25
  3.4432e+04   5.74e-25
  3.5638e+04   5.53e-25
  3.6887e+04   5.33e-25
  3.8180e+04   5.13e-25
  3.9518e+04   4.94e-25
  4.0903e+04   4.76e-25
  4.2336e+04   4.58e-25
  4.3820e+04   4.41e-25
  4.5355e+04   4.25e-25
  4.6945e+04   4.09e-25
  4.8590e+04   3.93e-25
  5.0293e+04   3.79e-25
  5.2055e+04   3.64e-25
  5.3879e+04   3.50e-25
  5.5767e+04   3.37e-25
  5.7722e+04   3.24e-25
  5.9745e+04   3.12e-25
  6.1838e+04   3.00e-25
  6.4005e+04   2.88e-25
  6.6248e+04   2.77e-25
  6.8570e+04   2.66e-25
  7.0973e+04   2.56e-25
  7.3460e+04   2.45e-25
  7.6034e+04   2.36e-25
  7.8699e+04   2.26e-25
  8.1457e+04   2.17e-25
  8.4311e+04   2.09e-25
  8.7266e+04   2.00e-25
  9.0324e+04   1.92e-25
  9.3490e+04   1.84e-25
  9.6766e+04   1.77e-25
  1.0016e+05   1.69e-25
  1.0367e+05   1.62e-25
  1.0730e+05   1.56e-25
  1.1106e+05   1.49e-25
  1.1495e+05   1.43e-25
  1.1898e+05   1.37e-25
  1.2315e+05   1.31e-25
  1.2747e+05   1.25e-25
  1.3193e+05   1.20e-25
  1.3656e+05   1.15e-25
  1.4134e+05   1.10e-25
  1.4629e+05   1.05e-25
  1.5142e+05   1.00e-25
  1.5673e+05   9.56e-26
  1.6222e+05   9.13e-26
  1.6790e+05   8.72e-26
  1.7379e+05   8.32e-26
  1.7988e+05   7.94e-26
  1.8618e+05   7.57e-26
  1.9271e+05   7.22e-26
  1.9946e+05   6.88e-26
  2.0645e+05   6.55e-26
  2.1369e+05   6.24e-26
  2.2117e+05   5.94e-26
  2.2892e+05   5.65e-26
  2.3695e+05   5.38e-26
  2.4525e+05   5.11e-26
  2.5385e+05   4.86e-26
  2.6274e+05   4.62e-26
  2.7195e+05   4.39e-26
  2.8148e+05   4.17e-26
  2.9134e+05   3.95e-26
  3.0155e+05   3.75e-26
  3.1212e+05   3.56e-26
  3.2306e+05   3.37e-26
  3.3438e+05   3.19e-26
  3.4610e+05   3.02e-26
  3.5823e+05   2.86e-26
  3.7078e+05   2.71e-26
  3.8377e+05   2.56e-26
  3.9722e+05   2.42e-26
  4.1114e+05   2.29e-26
  4.2555e+05   2.16e-26
  4.4046e+05   2.04e-26
  4.5590e+05   1.93e-26
  4.7188e+05   1.82e-26
  4.8841e+05   1.71e-26
  5.0553e+05   1.62e-26
  5.2324e+05   1.52e-26
  5.4158e+05   1.43e-26
  5.6056e+05   1.35e-26
  5.8020e+05   1.27e-26
  6.0054e+05   1.19e-26
  6.2158e+05   1.12e-26
  6.4337e+05   1.06e-26
  6.6591e+05   9.91e-27
  6.8925e+05   9.31e-27
  7.1340e+05   8.73e-27
  7.3840e+05   8.19e-27
  7.6428e+05   7.68e-27
  7.9106e+05   7.19e-27
  8.1878e+05   6.74e-27
  8.4748e+05   6.31e-27
  8.7718e+05   5.90e-27
  9.0792e+05   5.52e-27
  9.3973e+05   5.16e-27
  9.7267e+05   4.82e-27
  1.0068e+06   4.50e-27
  1.0420e+06   4.20e-27
  1.0785e+06   3.92e-27
  1.1163e+06   3.65e-27
  1.1555e+06   3.41e-27
  1.1960e+06   3.18e-27
  1.2379e+06   2.96e-27
  1.2813e+06   2.75e-27
  1.3262e+06   2.56e-27
  1.3726e+06   2.38e-27
  1.4207e+06   2.21e-27
  1.4705e+06   2.06e-27
  1.5220e+06   1.91e-27
  1.5754e+06   1.77e-27
  1.6306e+06   1.64e-27
  1.6877e+06   1.52e-27
  1.7469e+06   1.41e-27
  1.8081e+06   1.30e-27
  1.8715e+06   1.21e-27
  1.9370e+06   1.11e-27
  2.0049e+06   1.03e-27
  2.0752e+06   9.51e-28
  2.1479e+06   8.77e-28
  2.2232e+06   8.08e-28
  2.3011e+06   7.45e-28
  2.3817e+06   6.87e-28
  2.4652e+06   6.31e-28
  2.5516e+06   5.80e-28
  2.6410e+06   5.34e-28
  2.7336e+06   4.90e-28
  2.8294e+06   4.49e-28
  2.9285e+06   4.12e-28
  3.0311e+06   3.77e-28
  3.1374e+06   3.44e-28
  3.2473e+06   3.15e-28
  3.3611e+06   2.87e-28
  3.4789e+06   2.62e-28
  3.6008e+06   2.39e-28
  3.7270e+06   2.17e-28
  3.8576e+06   1.97e-28
  3.9928e+06   1.79e-28
  4.1327e+06   1.63e-28
  4.2775e+06   1.48e-28
  4.4274e+06   1.33e-28
  4.5826e+06   1.21e-28
  4.7432e+06   1.09e-28
  4.9094e+06   9.82e-29
  5.0815e+06   8.86e-29
  5.2595e+06   7.98e-29
  5.4438e+06   7.16e-29
  5.6346e+06   6.41e-29
  5.8321e+06   5.76e-29
  6.0365e+06   5.14e-29
  6.2480e+06   4.56e-29
  6.4670e+06   4.08e-29
  6.6936e+06   3.63e-29
  6.9282e+06   3.21e-29
  7.1709e+06   2.85e-29
  7.4222e+06   2.53e-29
  7.6823e+06   2.23e-29
  7.9516e+06   1.95e-29
  8.2302e+06   1.73e-29
  8.5186e+06   1.52e-29
  8.8172e+06   1.32e-29
  9.1262e+06   1.16e-29
  9.4460e+06   1.01e-29
  9.7770e+06   8.74e-30
  1.0120e+07   7.58e-30
  1.0474e+07   6.59e-30
  1.0841e+07   5.67e-30
  1.1221e+07   4.84e-30
  1.1614e+07   4.19e-30
  1.2022e+07   3.58e-30
  1.2443e+07   3.01e-30
  1.2879e+07   2.57e-30
  1.3330e+07   2.18e-30
  1.3797e+07   1.82e-30
  1.4281e+07   1.53e-30
  1.4781e+07   1.29e-30
  1.5299e+07   1.07e-30
  1.5835e+07   8.74e-31
  1.6390e+07   7.31e-31
  1.6965e+07   6.02e-31
  1.7559e+07   4.84e-31
  1.8175e+07   3.98e-31
  1.8812e+07   3.23e-31
  1.9471e+07   2.57e-31
  2.0153e+07   2.04e-31
  2.0859e+07   1.63e-31
  2.1590e+07   1.27e-31
  2.2347e+07   9.62e-32
  2.3130e+07   7.42e-32
  2.3941e+07   5.55e-32
  2.4780e+07   3.99e-32
  2.5648e+07   2.87e-32
  2.6547e+07   1.99e-32
  2.7477e+07   1.30e-32
  2.8440e+07   8.22e-33
