#  E [MeV]   Flux [# cm^{-2} s^{-1}  MeV^{-1}]
  3.0000e+04   1.20e-17
  3.0411e+04   1.16e-17
  3.0828e+04   1.12e-17
  3.1250e+04   1.08e-17
  3.1678e+04   1.04e-17
  3.2112e+04   1.01e-17
  3.2552e+04   9.73e-18
  3.2998e+04   9.40e-18
  3.3450e+04   9.07e-18
  3.3909e+04   8.75e-18
  3.4373e+04   8.43e-18
  3.4844e+04   8.12e-18
  3.5322e+04   7.82e-18
  3.5806e+04   7.55e-18
  3.6296e+04   7.29e-18
  3.6794e+04   7.03e-18
  3.7298e+04   6.77e-18
  3.7809e+04   6.52e-18
  3.8327e+04   6.28e-18
  3.8852e+04   6.04e-18
  3.9384e+04   5.81e-18
  3.9924e+04   5.60e-18
  4.0471e+04   5.39e-18
  4.1025e+04   5.20e-18
  4.1587e+04   5.00e-18
  4.2157e+04   4.81e-18
  4.2735e+04   4.63e-18
  4.3320e+04   4.45e-18
  4.3914e+04   4.27e-18
  4.4516e+04   4.10e-18
  4.5125e+04   3.95e-18
  4.5744e+04   3.80e-18
  4.6370e+04   3.65e-18
  4.7006e+04   3.51e-18
  4.7650e+04   3.37e-18
  4.8303e+04   3.23e-18
  4.8965e+04   3.10e-18
  4.9635e+04   2.96e-18
  5.0315e+04   2.85e-18
  5.1005e+04   2.74e-18
  5.1704e+04   2.63e-18
  5.2412e+04   2.52e-18
  5.3130e+04   2.42e-18
  5.3858e+04   2.32e-18
  5.4596e+04   2.22e-18
  5.5344e+04   2.12e-18
  5.6102e+04   2.03e-18
  5.6871e+04   1.95e-18
  5.7650e+04   1.87e-18
  5.8440e+04   1.79e-18
  5.9241e+04   1.72e-18
  6.0053e+04   1.64e-18
  6.0875e+04   1.57e-18
  6.1709e+04   1.50e-18
  6.2555e+04   1.43e-18
  6.3412e+04   1.37e-18
  6.4281e+04   1.31e-18
  6.5162e+04   1.26e-18
  6.6054e+04   1.20e-18
  6.6959e+04   1.15e-18
  6.7877e+04   1.10e-18
  6.8807e+04   1.05e-18
  6.9750e+04   9.99e-19
  7.0705e+04   9.53e-19
  7.1674e+04   9.12e-19
  7.2656e+04   8.73e-19
  7.3652e+04   8.34e-19
  7.4661e+04   7.96e-19
  7.5684e+04   7.59e-19
  7.6721e+04   7.23e-19
  7.7772e+04   6.88e-19
  7.8837e+04   6.53e-19
  7.9917e+04   6.24e-19
  8.1012e+04   5.97e-19
  8.2122e+04   5.70e-19
  8.3248e+04   5.43e-19
  8.4388e+04   5.17e-19
  8.5544e+04   4.92e-19
  8.6717e+04   4.68e-19
  8.7905e+04   4.44e-19
  8.9109e+04   4.22e-19
  9.0330e+04   4.02e-19
  9.1568e+04   3.83e-19
  9.2822e+04   3.65e-19
  9.4094e+04   3.47e-19
  9.5383e+04   3.30e-19
  9.6690e+04   3.12e-19
  9.8015e+04   2.96e-19
  9.9358e+04   2.79e-19
  1.0072e+05   2.66e-19
  1.0210e+05   2.54e-19
  1.0350e+05   2.41e-19
  1.0492e+05   2.29e-19
  1.0635e+05   2.17e-19
  1.0781e+05   2.06e-19
  1.0929e+05   1.94e-19
  1.1079e+05   1.83e-19
  1.1230e+05   1.74e-19
  1.1384e+05   1.65e-19
  1.1540e+05   1.57e-19
  1.1698e+05   1.49e-19
  1.1859e+05   1.41e-19
  1.2021e+05   1.33e-19
  1.2186e+05   1.26e-19
  1.2353e+05   1.18e-19
  1.2522e+05   1.11e-19
  1.2694e+05   1.06e-19
  1.2867e+05   1.00e-19
  1.3044e+05   9.51e-20
  1.3222e+05   9.00e-20
  1.3404e+05   8.50e-20
  1.3587e+05   8.01e-20
  1.3773e+05   7.53e-20
  1.3962e+05   7.06e-20
  1.4153e+05   6.67e-20
  1.4347e+05   6.32e-20
  1.4544e+05   5.98e-20
  1.4743e+05   5.65e-20
  1.4945e+05   5.33e-20
  1.5150e+05   5.02e-20
  1.5358e+05   4.71e-20
  1.5568e+05   4.41e-20
  1.5781e+05   4.13e-20
  1.5997e+05   3.91e-20
  1.6217e+05   3.70e-20
  1.6439e+05   3.50e-20
  1.6664e+05   3.30e-20
  1.6892e+05   3.10e-20
  1.7124e+05   2.91e-20
  1.7358e+05   2.72e-20
  1.7596e+05   2.54e-20
  1.7837e+05   2.39e-20
  1.8082e+05   2.26e-20
  1.8330e+05   2.13e-20
  1.8581e+05   2.01e-20
  1.8835e+05   1.89e-20
  1.9093e+05   1.77e-20
  1.9355e+05   1.66e-20
  1.9620e+05   1.54e-20
  1.9889e+05   1.44e-20
  2.0161e+05   1.36e-20
  2.0438e+05   1.28e-20
  2.0718e+05   1.21e-20
  2.1002e+05   1.14e-20
  2.1289e+05   1.06e-20
  2.1581e+05   9.95e-21
  2.1877e+05   9.27e-21
  2.2176e+05   8.61e-21
  2.2480e+05   8.10e-21
  2.2788e+05   7.64e-21
  2.3101e+05   7.20e-21
  2.3417e+05   6.77e-21
  2.3738e+05   6.35e-21
  2.4063e+05   5.94e-21
  2.4393e+05   5.54e-21
  2.4727e+05   5.15e-21
  2.5066e+05   4.80e-21
  2.5409e+05   4.53e-21
  2.5757e+05   4.28e-21
  2.6110e+05   4.02e-21
  2.6468e+05   3.78e-21
  2.6831e+05   3.54e-21
  2.7198e+05   3.31e-21
  2.7571e+05   3.08e-21
  2.7949e+05   2.86e-21
  2.8332e+05   2.69e-21
  2.8720e+05   2.53e-21
  2.9113e+05   2.38e-21
  2.9512e+05   2.24e-21
  2.9917e+05   2.10e-21
  3.0327e+05   1.96e-21
  3.0742e+05   1.82e-21
  3.1163e+05   1.69e-21
  3.1590e+05   1.57e-21
  3.2023e+05   1.48e-21
  3.2462e+05   1.39e-21
  3.2907e+05   1.30e-21
  3.3357e+05   1.21e-21
  3.3814e+05   1.13e-21
  3.4278e+05   1.05e-21
  3.4747e+05   9.65e-22
  3.5223e+05   8.87e-22
  3.5706e+05   8.27e-22
  3.6195e+05   7.70e-22
  3.6691e+05   7.15e-22
  3.7194e+05   6.61e-22
  3.7704e+05   6.09e-22
  3.8220e+05   5.57e-22
  3.8744e+05   5.08e-22
  3.9275e+05   4.59e-22
  3.9813e+05   4.17e-22
  4.0358e+05   3.83e-22
  4.0911e+05   3.50e-22
  4.1472e+05   3.18e-22
  4.2040e+05   2.86e-22
  4.2616e+05   2.56e-22
  4.3200e+05   2.26e-22
  4.3792e+05   1.97e-22
  4.4392e+05   1.69e-22
  4.5000e+05   1.57e-22
