#  E [GeV]   # per interaction  [GeV^{-1}]
  3.0000e+01   2.64e-02
  3.1141e+01   2.54e-02
  3.2326e+01   2.44e-02
  3.3556e+01   2.35e-02
  3.4832e+01   2.26e-02
  3.6157e+01   2.17e-02
  3.7533e+01   2.09e-02
  3.8961e+01   2.00e-02
  4.0443e+01   1.92e-02
  4.1982e+01   1.85e-02
  4.3579e+01   1.77e-02
  4.5237e+01   1.70e-02
  4.6958e+01   1.63e-02
  4.8744e+01   1.57e-02
  5.0598e+01   1.50e-02
  5.2523e+01   1.44e-02
  5.4521e+01   1.38e-02
  5.6596e+01   1.32e-02
  5.8749e+01   1.27e-02
  6.0984e+01   1.21e-02
  6.3304e+01   1.16e-02
  6.5712e+01   1.11e-02
  6.8212e+01   1.07e-02
  7.0807e+01   1.02e-02
  7.3500e+01   9.75e-03
  7.6297e+01   9.33e-03
  7.9199e+01   8.91e-03
  8.2212e+01   8.52e-03
  8.5340e+01   8.14e-03
  8.8586e+01   7.77e-03
  9.1956e+01   7.42e-03
  9.5455e+01   7.08e-03
  9.9086e+01   6.76e-03
  1.0286e+02   6.45e-03
  1.0677e+02   6.15e-03
  1.1083e+02   5.86e-03
  1.1505e+02   5.58e-03
  1.1942e+02   5.32e-03
  1.2397e+02   5.07e-03
  1.2868e+02   4.82e-03
  1.3358e+02   4.59e-03
  1.3866e+02   4.36e-03
  1.4394e+02   4.15e-03
  1.4941e+02   3.94e-03
  1.5509e+02   3.75e-03
  1.6100e+02   3.56e-03
  1.6712e+02   3.38e-03
  1.7348e+02   3.20e-03
  1.8008e+02   3.04e-03
  1.8693e+02   2.88e-03
  1.9404e+02   2.73e-03
  2.0142e+02   2.58e-03
  2.0908e+02   2.45e-03
  2.1704e+02   2.31e-03
  2.2529e+02   2.19e-03
  2.3387e+02   2.07e-03
  2.4276e+02   1.95e-03
  2.5200e+02   1.84e-03
  2.6158e+02   1.74e-03
  2.7154e+02   1.64e-03
  2.8187e+02   1.54e-03
  2.9259e+02   1.45e-03
  3.0372e+02   1.36e-03
  3.1527e+02   1.28e-03
  3.2727e+02   1.20e-03
  3.3972e+02   1.13e-03
  3.5264e+02   1.06e-03
  3.6606e+02   9.94e-04
  3.7998e+02   9.31e-04
  3.9444e+02   8.72e-04
  4.0945e+02   8.15e-04
  4.2502e+02   7.62e-04
  4.4119e+02   7.12e-04
  4.5798e+02   6.64e-04
  4.7540e+02   6.20e-04
  4.9348e+02   5.78e-04
  5.1226e+02   5.38e-04
  5.3175e+02   5.01e-04
  5.5198e+02   4.66e-04
  5.7297e+02   4.34e-04
  5.9477e+02   4.03e-04
  6.1740e+02   3.75e-04
  6.4089e+02   3.48e-04
  6.6527e+02   3.23e-04
  6.9058e+02   3.00e-04
  7.1685e+02   2.78e-04
  7.4412e+02   2.58e-04
  7.7243e+02   2.40e-04
  8.0181e+02   2.22e-04
  8.3232e+02   2.06e-04
  8.6398e+02   1.91e-04
  8.9685e+02   1.77e-04
  9.3097e+02   1.65e-04
  9.6638e+02   1.53e-04
  1.0031e+03   1.42e-04
  1.0413e+03   1.32e-04
  1.0809e+03   1.22e-04
  1.1220e+03   1.14e-04
  1.1647e+03   1.06e-04
  1.2090e+03   9.82e-05
  1.2550e+03   9.14e-05
  1.3028e+03   8.50e-05
  1.3523e+03   7.92e-05
  1.4038e+03   7.38e-05
  1.4572e+03   6.88e-05
  1.5126e+03   6.41e-05
  1.5702e+03   5.98e-05
  1.6299e+03   5.59e-05
  1.6919e+03   5.21e-05
  1.7563e+03   4.87e-05
  1.8231e+03   4.56e-05
  1.8925e+03   4.26e-05
  1.9645e+03   3.99e-05
  2.0392e+03   3.73e-05
  2.1168e+03   3.49e-05
  2.1973e+03   3.27e-05
  2.2809e+03   3.06e-05
  2.3677e+03   2.87e-05
  2.4577e+03   2.69e-05
  2.5512e+03   2.52e-05
  2.6483e+03   2.37e-05
  2.7490e+03   2.22e-05
  2.8536e+03   2.08e-05
  2.9622e+03   1.95e-05
  3.0749e+03   1.83e-05
  3.1918e+03   1.72e-05
  3.3133e+03   1.61e-05
  3.4393e+03   1.51e-05
  3.5702e+03   1.42e-05
  3.7060e+03   1.33e-05
  3.8470e+03   1.24e-05
  3.9933e+03   1.16e-05
  4.1452e+03   1.09e-05
  4.3029e+03   1.02e-05
  4.4666e+03   9.50e-06
  4.6366e+03   8.86e-06
  4.8129e+03   8.26e-06
  4.9960e+03   7.70e-06
  5.1861e+03   7.16e-06
  5.3834e+03   6.65e-06
  5.5882e+03   6.17e-06
  5.8008e+03   5.71e-06
  6.0215e+03   5.28e-06
  6.2506e+03   4.87e-06
  6.4883e+03   4.49e-06
  6.7352e+03   4.12e-06
  6.9914e+03   3.77e-06
  7.2574e+03   3.45e-06
  7.5335e+03   3.14e-06
  7.8201e+03   2.84e-06
  8.1176e+03   2.57e-06
  8.4264e+03   2.31e-06
  8.7470e+03   2.07e-06
  9.0797e+03   1.84e-06
  9.4251e+03   1.63e-06
  9.7837e+03   1.43e-06
  1.0156e+04   1.25e-06
  1.0542e+04   1.09e-06
  1.0943e+04   9.36e-07
  1.1360e+04   7.97e-07
  1.1792e+04   6.73e-07
  1.2240e+04   5.61e-07
  1.2706e+04   4.62e-07
  1.3189e+04   3.75e-07
  1.3691e+04   2.99e-07
  1.4212e+04   2.35e-07
  1.4753e+04   1.81e-07
  1.5314e+04   1.36e-07
  1.5897e+04   1.00e-07
  1.6501e+04   7.17e-08
  1.7129e+04   4.97e-08
  1.7781e+04   3.32e-08
  1.8457e+04   2.13e-08
  1.9159e+04   1.31e-08
  1.9888e+04   7.62e-09
  2.0645e+04   4.17e-09
  2.1430e+04   2.13e-09
  2.2245e+04   1.01e-09
  2.3092e+04   4.33e-10
  2.3970e+04   1.67e-10
  2.4882e+04   5.69e-11
  2.5829e+04   1.67e-11
  2.6811e+04   4.12e-12
  2.7831e+04   8.27e-13
  2.8890e+04   1.30e-13
  2.9989e+04   1.52e-14
  3.1130e+04   1.25e-15
  3.2314e+04   6.74e-17
  3.3544e+04   2.16e-18
  3.4820e+04   3.69e-20
  3.6144e+04   2.90e-22
  3.7519e+04   8.71e-25
  3.8947e+04   7.93e-28
  4.0428e+04   1.61e-31
  4.1966e+04   4.93e-36
  4.3563e+04   1.35e-41
  4.5220e+04   1.07e-46
  4.6941e+04   1.01e-46
  4.8726e+04   9.51e-47
  5.0580e+04   9.00e-47
