#  E [MeV]   Flux [# cm^{-2} s^{-1}  MeV^{-1}]
  3.0000e+04   2.02e-23
  3.0962e+04   1.95e-23
  3.1955e+04   1.89e-23
  3.2979e+04   1.82e-23
  3.4037e+04   1.76e-23
  3.5128e+04   1.70e-23
  3.6254e+04   1.65e-23
  3.7417e+04   1.59e-23
  3.8616e+04   1.54e-23
  3.9855e+04   1.49e-23
  4.1132e+04   1.43e-23
  4.2451e+04   1.38e-23
  4.3812e+04   1.34e-23
  4.5217e+04   1.29e-23
  4.6667e+04   1.24e-23
  4.8163e+04   1.20e-23
  4.9707e+04   1.16e-23
  5.1301e+04   1.12e-23
  5.2946e+04   1.08e-23
  5.4644e+04   1.04e-23
  5.6396e+04   1.00e-23
  5.8204e+04   9.63e-24
  6.0070e+04   9.27e-24
  6.1996e+04   8.93e-24
  6.3984e+04   8.59e-24
  6.6035e+04   8.27e-24
  6.8153e+04   7.95e-24
  7.0338e+04   7.65e-24
  7.2593e+04   7.35e-24
  7.4921e+04   7.07e-24
  7.7323e+04   6.79e-24
  7.9802e+04   6.53e-24
  8.2361e+04   6.27e-24
  8.5002e+04   6.02e-24
  8.7727e+04   5.78e-24
  9.0540e+04   5.54e-24
  9.3443e+04   5.32e-24
  9.6439e+04   5.10e-24
  9.9531e+04   4.89e-24
  1.0272e+05   4.68e-24
  1.0602e+05   4.48e-24
  1.0942e+05   4.29e-24
  1.1292e+05   4.11e-24
  1.1654e+05   3.93e-24
  1.2028e+05   3.76e-24
  1.2414e+05   3.59e-24
  1.2812e+05   3.43e-24
  1.3223e+05   3.28e-24
  1.3646e+05   3.13e-24
  1.4084e+05   2.99e-24
  1.4536e+05   2.85e-24
  1.5002e+05   2.72e-24
  1.5483e+05   2.59e-24
  1.5979e+05   2.47e-24
  1.6491e+05   2.36e-24
  1.7020e+05   2.24e-24
  1.7566e+05   2.14e-24
  1.8129e+05   2.03e-24
  1.8710e+05   1.93e-24
  1.9310e+05   1.84e-24
  1.9929e+05   1.75e-24
  2.0568e+05   1.66e-24
  2.1228e+05   1.57e-24
  2.1909e+05   1.49e-24
  2.2611e+05   1.42e-24
  2.3336e+05   1.34e-24
  2.4084e+05   1.27e-24
  2.4856e+05   1.20e-24
  2.5653e+05   1.14e-24
  2.6476e+05   1.08e-24
  2.7325e+05   1.02e-24
  2.8201e+05   9.67e-25
  2.9105e+05   9.14e-25
  3.0038e+05   8.64e-25
  3.1002e+05   8.16e-25
  3.1996e+05   7.70e-25
  3.3021e+05   7.27e-25
  3.4080e+05   6.86e-25
  3.5173e+05   6.46e-25
  3.6301e+05   6.09e-25
  3.7465e+05   5.74e-25
  3.8666e+05   5.40e-25
  3.9905e+05   5.08e-25
  4.1185e+05   4.78e-25
  4.2506e+05   4.49e-25
  4.3868e+05   4.21e-25
  4.5275e+05   3.95e-25
  4.6727e+05   3.71e-25
  4.8225e+05   3.48e-25
  4.9771e+05   3.26e-25
  5.1367e+05   3.05e-25
  5.3014e+05   2.85e-25
  5.4714e+05   2.67e-25
  5.6468e+05   2.49e-25
  5.8278e+05   2.33e-25
  6.0147e+05   2.18e-25
  6.2075e+05   2.03e-25
  6.4066e+05   1.89e-25
  6.6120e+05   1.76e-25
  6.8240e+05   1.64e-25
  7.0428e+05   1.53e-25
  7.2686e+05   1.42e-25
  7.5017e+05   1.32e-25
  7.7422e+05   1.23e-25
  7.9904e+05   1.14e-25
  8.2466e+05   1.06e-25
  8.5110e+05   9.79e-26
  8.7839e+05   9.06e-26
  9.0656e+05   8.39e-26
  9.3562e+05   7.76e-26
  9.6562e+05   7.17e-26
  9.9658e+05   6.62e-26
  1.0285e+06   6.12e-26
  1.0615e+06   5.65e-26
  1.0956e+06   5.20e-26
  1.1307e+06   4.80e-26
  1.1669e+06   4.42e-26
  1.2043e+06   4.07e-26
  1.2430e+06   3.73e-26
  1.2828e+06   3.43e-26
  1.3239e+06   3.15e-26
  1.3664e+06   2.89e-26
  1.4102e+06   2.64e-26
  1.4554e+06   2.43e-26
  1.5021e+06   2.22e-26
  1.5502e+06   2.03e-26
  1.6000e+06   1.86e-26
  1.6513e+06   1.70e-26
  1.7042e+06   1.55e-26
  1.7588e+06   1.41e-26
  1.8152e+06   1.28e-26
  1.8734e+06   1.17e-26
  1.9335e+06   1.06e-26
  1.9955e+06   9.65e-27
  2.0595e+06   8.79e-27
  2.1255e+06   7.98e-27
  2.1937e+06   7.22e-27
  2.2640e+06   6.55e-27
  2.3366e+06   5.94e-27
  2.4115e+06   5.37e-27
  2.4888e+06   4.83e-27
  2.5686e+06   4.39e-27
  2.6510e+06   3.96e-27
  2.7360e+06   3.57e-27
  2.8237e+06   3.21e-27
  2.9142e+06   2.90e-27
  3.0077e+06   2.61e-27
  3.1041e+06   2.34e-27
  3.2036e+06   2.10e-27
  3.3064e+06   1.89e-27
  3.4124e+06   1.69e-27
  3.5218e+06   1.51e-27
  3.6347e+06   1.36e-27
  3.7512e+06   1.22e-27
  3.8715e+06   1.08e-27
  3.9957e+06   9.64e-28
  4.1238e+06   8.65e-28
  4.2560e+06   7.71e-28
  4.3924e+06   6.82e-28
  4.5333e+06   6.09e-28
  4.6786e+06   5.44e-28
  4.8286e+06   4.82e-28
  4.9835e+06   4.25e-28
  5.1433e+06   3.80e-28
  5.3082e+06   3.38e-28
  5.4784e+06   2.98e-28
  5.6540e+06   2.64e-28
  5.8353e+06   2.35e-28
  6.0224e+06   2.08e-28
  6.2155e+06   1.82e-28
  6.4148e+06   1.62e-28
  6.6205e+06   1.44e-28
  6.8327e+06   1.27e-28
  7.0518e+06   1.11e-28
  7.2779e+06   9.86e-29
  7.5113e+06   8.69e-29
  7.7521e+06   7.58e-29
  8.0007e+06   6.66e-29
  8.2572e+06   5.90e-29
  8.5219e+06   5.19e-29
  8.7952e+06   4.52e-29
  9.0772e+06   4.02e-29
  9.3682e+06   3.56e-29
  9.6686e+06   3.14e-29
  9.9786e+06   2.76e-29
  1.0299e+07   2.48e-29
  1.0629e+07   2.22e-29
  1.0970e+07   1.97e-29
  1.1321e+07   1.78e-29
  1.1684e+07   1.61e-29
  1.2059e+07   1.46e-29
  1.2446e+07   1.31e-29
  1.2845e+07   1.21e-29
  1.3256e+07   1.11e-29
  1.3681e+07   1.02e-29
  1.4120e+07   9.34e-30
  1.4573e+07   8.64e-30
  1.5040e+07   7.98e-30
  1.5522e+07   7.34e-30
  1.6020e+07   6.76e-30
