#  E [GeV]   # per interaction  [GeV^{-1}]
  3.0000e+01   7.21e-01
  3.0962e+01   6.93e-01
  3.1955e+01   6.65e-01
  3.2979e+01   6.38e-01
  3.4037e+01   6.12e-01
  3.5128e+01   5.88e-01
  3.6254e+01   5.64e-01
  3.7417e+01   5.41e-01
  3.8616e+01   5.19e-01
  3.9855e+01   4.98e-01
  4.1132e+01   4.78e-01
  4.2451e+01   4.58e-01
  4.3812e+01   4.39e-01
  4.5217e+01   4.21e-01
  4.6667e+01   4.04e-01
  4.8163e+01   3.87e-01
  4.9707e+01   3.71e-01
  5.1301e+01   3.56e-01
  5.2946e+01   3.41e-01
  5.4644e+01   3.27e-01
  5.6396e+01   3.13e-01
  5.8204e+01   3.00e-01
  6.0070e+01   2.87e-01
  6.1996e+01   2.75e-01
  6.3984e+01   2.63e-01
  6.6035e+01   2.52e-01
  6.8153e+01   2.42e-01
  7.0338e+01   2.31e-01
  7.2593e+01   2.21e-01
  7.4921e+01   2.12e-01
  7.7323e+01   2.03e-01
  7.9802e+01   1.94e-01
  8.2361e+01   1.86e-01
  8.5002e+01   1.77e-01
  8.7727e+01   1.70e-01
  9.0540e+01   1.62e-01
  9.3443e+01   1.55e-01
  9.6439e+01   1.48e-01
  9.9531e+01   1.42e-01
  1.0272e+02   1.35e-01
  1.0602e+02   1.29e-01
  1.0942e+02   1.23e-01
  1.1292e+02   1.18e-01
  1.1654e+02   1.12e-01
  1.2028e+02   1.07e-01
  1.2414e+02   1.02e-01
  1.2812e+02   9.76e-02
  1.3223e+02   9.30e-02
  1.3646e+02   8.86e-02
  1.4084e+02   8.44e-02
  1.4536e+02   8.04e-02
  1.5002e+02   7.65e-02
  1.5483e+02   7.28e-02
  1.5979e+02   6.92e-02
  1.6491e+02   6.57e-02
  1.7020e+02   6.24e-02
  1.7566e+02   5.93e-02
  1.8129e+02   5.62e-02
  1.8710e+02   5.33e-02
  1.9310e+02   5.05e-02
  1.9929e+02   4.78e-02
  2.0568e+02   4.52e-02
  2.1228e+02   4.27e-02
  2.1909e+02   4.04e-02
  2.2611e+02   3.82e-02
  2.3336e+02   3.60e-02
  2.4084e+02   3.40e-02
  2.4856e+02   3.21e-02
  2.5653e+02   3.02e-02
  2.6476e+02   2.85e-02
  2.7325e+02   2.68e-02
  2.8201e+02   2.53e-02
  2.9105e+02   2.38e-02
  3.0038e+02   2.24e-02
  3.1002e+02   2.10e-02
  3.1996e+02   1.98e-02
  3.3021e+02   1.85e-02
  3.4080e+02   1.74e-02
  3.5173e+02   1.63e-02
  3.6301e+02   1.53e-02
  3.7465e+02   1.43e-02
  3.8666e+02   1.34e-02
  3.9905e+02   1.25e-02
  4.1185e+02   1.17e-02
  4.2506e+02   1.09e-02
  4.3868e+02   1.01e-02
  4.5275e+02   9.44e-03
  4.6727e+02   8.78e-03
  4.8225e+02   8.16e-03
  4.9771e+02   7.58e-03
  5.1367e+02   7.03e-03
  5.3014e+02   6.52e-03
  5.4714e+02   6.04e-03
  5.6468e+02   5.59e-03
  5.8278e+02   5.17e-03
  6.0147e+02   4.78e-03
  6.2075e+02   4.41e-03
  6.4066e+02   4.07e-03
  6.6120e+02   3.75e-03
  6.8240e+02   3.46e-03
  7.0428e+02   3.19e-03
  7.2686e+02   2.93e-03
  7.5017e+02   2.69e-03
  7.7422e+02   2.47e-03
  7.9904e+02   2.27e-03
  8.2466e+02   2.08e-03
  8.5110e+02   1.90e-03
  8.7839e+02   1.74e-03
  9.0656e+02   1.60e-03
  9.3562e+02   1.46e-03
  9.6562e+02   1.33e-03
  9.9658e+02   1.22e-03
  1.0285e+03   1.11e-03
  1.0615e+03   1.01e-03
  1.0956e+03   9.22e-04
  1.1307e+03   8.41e-04
  1.1669e+03   7.64e-04
  1.2043e+03   6.94e-04
  1.2430e+03   6.32e-04
  1.2828e+03   5.74e-04
  1.3239e+03   5.20e-04
  1.3664e+03   4.72e-04
  1.4102e+03   4.28e-04
  1.4554e+03   3.88e-04
  1.5021e+03   3.50e-04
  1.5502e+03   3.17e-04
  1.6000e+03   2.86e-04
  1.6513e+03   2.58e-04
  1.7042e+03   2.32e-04
  1.7588e+03   2.09e-04
  1.8152e+03   1.88e-04
  1.8734e+03   1.69e-04
  1.9335e+03   1.52e-04
  1.9955e+03   1.36e-04
  2.0595e+03   1.22e-04
  2.1255e+03   1.08e-04
  2.1937e+03   9.74e-05
  2.2640e+03   8.71e-05
  2.3366e+03   7.74e-05
  2.4115e+03   6.88e-05
  2.4888e+03   6.15e-05
  2.5686e+03   5.46e-05
  2.6510e+03   4.82e-05
  2.7360e+03   4.28e-05
  2.8237e+03   3.80e-05
  2.9142e+03   3.35e-05
  3.0077e+03   2.93e-05
  3.1041e+03   2.60e-05
  3.2036e+03   2.29e-05
  3.3064e+03   2.00e-05
  3.4124e+03   1.74e-05
  3.5218e+03   1.53e-05
  3.6347e+03   1.34e-05
  3.7512e+03   1.16e-05
  3.8715e+03   1.01e-05
  3.9957e+03   8.81e-06
  4.1238e+03   7.61e-06
  4.2560e+03   6.51e-06
  4.3924e+03   5.68e-06
  4.5333e+03   4.90e-06
  4.6786e+03   4.18e-06
  4.8286e+03   3.58e-06
  4.9835e+03   3.10e-06
  5.1433e+03   2.64e-06
  5.3082e+03   2.23e-06
  5.4784e+03   1.91e-06
  5.6540e+03   1.64e-06
  5.8353e+03   1.38e-06
  6.0224e+03   1.16e-06
  6.2155e+03   9.90e-07
  6.4148e+03   8.38e-07
  6.6205e+03   6.99e-07
  6.8327e+03   5.88e-07
  7.0518e+03   5.00e-07
  7.2779e+03   4.19e-07
  7.5113e+03   3.47e-07
  7.7521e+03   2.94e-07
  8.0007e+03   2.48e-07
  8.2572e+03   2.07e-07
  8.5219e+03   1.71e-07
  8.7952e+03   1.45e-07
  9.0772e+03   1.21e-07
  9.3682e+03   9.98e-08
  9.6686e+03   8.33e-08
  9.9786e+03   6.99e-08
  1.0299e+04   5.81e-08
  1.0629e+04   4.77e-08
  1.0970e+04   3.97e-08
  1.1321e+04   3.28e-08
  1.1684e+04   2.68e-08
  1.2059e+04   2.18e-08
  1.2446e+04   1.76e-08
  1.2845e+04   1.40e-08
  1.3256e+04   1.10e-08
  1.3681e+04   8.53e-09
  1.4120e+04   6.52e-09
  1.4573e+04   4.89e-09
  1.5040e+04   3.59e-09
  1.5522e+04   2.64e-09
  1.6020e+04   1.90e-09
