#  E [MeV]   Flux [# cm^{-2} s^{-1}  MeV^{-1}]
  3.0000e+04   2.43e-20
  3.1123e+04   2.34e-20
  3.2288e+04   2.24e-20
  3.3497e+04   2.16e-20
  3.4751e+04   2.07e-20
  3.6051e+04   1.99e-20
  3.7401e+04   1.91e-20
  3.8801e+04   1.84e-20
  4.0253e+04   1.76e-20
  4.1760e+04   1.69e-20
  4.3324e+04   1.63e-20
  4.4945e+04   1.56e-20
  4.6628e+04   1.50e-20
  4.8373e+04   1.44e-20
  5.0184e+04   1.38e-20
  5.2063e+04   1.33e-20
  5.4011e+04   1.27e-20
  5.6033e+04   1.22e-20
  5.8131e+04   1.17e-20
  6.0307e+04   1.13e-20
  6.2564e+04   1.08e-20
  6.4906e+04   1.04e-20
  6.7336e+04   9.94e-21
  6.9857e+04   9.53e-21
  7.2472e+04   9.14e-21
  7.5184e+04   8.76e-21
  7.7999e+04   8.40e-21
  8.0919e+04   8.05e-21
  8.3948e+04   7.72e-21
  8.7090e+04   7.40e-21
  9.0350e+04   7.09e-21
  9.3732e+04   6.79e-21
  9.7241e+04   6.50e-21
  1.0088e+05   6.22e-21
  1.0466e+05   5.96e-21
  1.0858e+05   5.70e-21
  1.1264e+05   5.46e-21
  1.1686e+05   5.22e-21
  1.2123e+05   5.00e-21
  1.2577e+05   4.78e-21
  1.3048e+05   4.57e-21
  1.3536e+05   4.37e-21
  1.4043e+05   4.18e-21
  1.4568e+05   3.99e-21
  1.5114e+05   3.81e-21
  1.5680e+05   3.64e-21
  1.6266e+05   3.48e-21
  1.6875e+05   3.32e-21
  1.7507e+05   3.17e-21
  1.8162e+05   3.02e-21
  1.8842e+05   2.88e-21
  1.9548e+05   2.74e-21
  2.0279e+05   2.62e-21
  2.1039e+05   2.49e-21
  2.1826e+05   2.37e-21
  2.2643e+05   2.26e-21
  2.3491e+05   2.15e-21
  2.4370e+05   2.05e-21
  2.5282e+05   1.95e-21
  2.6229e+05   1.85e-21
  2.7211e+05   1.76e-21
  2.8229e+05   1.67e-21
  2.9286e+05   1.59e-21
  3.0382e+05   1.51e-21
  3.1519e+05   1.43e-21
  3.2699e+05   1.35e-21
  3.3923e+05   1.28e-21
  3.5193e+05   1.22e-21
  3.6511e+05   1.15e-21
  3.7877e+05   1.09e-21
  3.9295e+05   1.03e-21
  4.0766e+05   9.76e-22
  4.2292e+05   9.23e-22
  4.3875e+05   8.72e-22
  4.5518e+05   8.24e-22
  4.7222e+05   7.78e-22
  4.8989e+05   7.34e-22
  5.0823e+05   6.92e-22
  5.2726e+05   6.53e-22
  5.4699e+05   6.15e-22
  5.6747e+05   5.80e-22
  5.8871e+05   5.46e-22
  6.1075e+05   5.14e-22
  6.3361e+05   4.83e-22
  6.5733e+05   4.54e-22
  6.8194e+05   4.27e-22
  7.0746e+05   4.01e-22
  7.3395e+05   3.76e-22
  7.6142e+05   3.53e-22
  7.8992e+05   3.31e-22
  8.1949e+05   3.11e-22
  8.5017e+05   2.91e-22
  8.8199e+05   2.73e-22
  9.1501e+05   2.56e-22
  9.4926e+05   2.40e-22
  9.8479e+05   2.24e-22
  1.0217e+06   2.10e-22
  1.0599e+06   1.96e-22
  1.0996e+06   1.83e-22
  1.1407e+06   1.71e-22
  1.1834e+06   1.60e-22
  1.2277e+06   1.49e-22
  1.2737e+06   1.39e-22
  1.3214e+06   1.30e-22
  1.3708e+06   1.21e-22
  1.4222e+06   1.12e-22
  1.4754e+06   1.05e-22
  1.5306e+06   9.74e-23
  1.5879e+06   9.06e-23
  1.6474e+06   8.42e-23
  1.7090e+06   7.82e-23
  1.7730e+06   7.26e-23
  1.8394e+06   6.74e-23
  1.9082e+06   6.25e-23
  1.9797e+06   5.79e-23
  2.0538e+06   5.37e-23
  2.1306e+06   4.98e-23
  2.2104e+06   4.60e-23
  2.2931e+06   4.26e-23
  2.3790e+06   3.93e-23
  2.4680e+06   3.63e-23
  2.5604e+06   3.35e-23
  2.6563e+06   3.09e-23
  2.7557e+06   2.85e-23
  2.8589e+06   2.62e-23
  2.9659e+06   2.41e-23
  3.0769e+06   2.22e-23
  3.1921e+06   2.04e-23
  3.3116e+06   1.87e-23
  3.4355e+06   1.72e-23
  3.5641e+06   1.57e-23
  3.6976e+06   1.44e-23
  3.8360e+06   1.32e-23
  3.9796e+06   1.20e-23
  4.1285e+06   1.10e-23
  4.2831e+06   1.00e-23
  4.4434e+06   9.13e-24
  4.6097e+06   8.32e-24
  4.7823e+06   7.57e-24
  4.9613e+06   6.85e-24
  5.1470e+06   6.23e-24
  5.3397e+06   5.65e-24
  5.5396e+06   5.10e-24
  5.7470e+06   4.61e-24
  5.9621e+06   4.17e-24
  6.1853e+06   3.75e-24
  6.4168e+06   3.38e-24
  6.6570e+06   3.04e-24
  6.9062e+06   2.72e-24
  7.1647e+06   2.44e-24
  7.4329e+06   2.19e-24
  7.7112e+06   1.95e-24
  7.9998e+06   1.74e-24
  8.2993e+06   1.55e-24
  8.6100e+06   1.37e-24
  8.9323e+06   1.22e-24
  9.2666e+06   1.08e-24
  9.6135e+06   9.50e-25
  9.9734e+06   8.33e-25
  1.0347e+07   7.34e-25
  1.0734e+07   6.43e-25
  1.1136e+07   5.58e-25
  1.1553e+07   4.89e-25
  1.1985e+07   4.24e-25
  1.2434e+07   3.65e-25
  1.2899e+07   3.16e-25
  1.3382e+07   2.72e-25
  1.3883e+07   2.32e-25
  1.4403e+07   1.98e-25
  1.4942e+07   1.69e-25
  1.5501e+07   1.42e-25
  1.6081e+07   1.20e-25
  1.6683e+07   1.01e-25
  1.7308e+07   8.34e-26
  1.7956e+07   6.89e-26
  1.8628e+07   5.68e-26
  1.9325e+07   4.60e-26
  2.0049e+07   3.69e-26
  2.0799e+07   2.97e-26
  2.1578e+07   2.34e-26
  2.2386e+07   1.81e-26
  2.3224e+07   1.42e-26
  2.4093e+07   1.07e-26
  2.4995e+07   7.91e-27
  2.5930e+07   5.89e-27
  2.6901e+07   4.23e-27
  2.7908e+07   2.90e-27
  2.8953e+07   2.00e-27
  3.0037e+07   1.31e-27
  3.1161e+07   8.07e-28
  3.2327e+07   4.83e-28
  3.3537e+07   2.70e-28
  3.4793e+07   1.37e-28
  3.6095e+07   6.46e-29
  3.7446e+07   2.73e-29
  3.8848e+07   9.78e-30
  4.0302e+07   2.95e-30
  4.1811e+07   7.09e-31
  4.3376e+07   1.25e-31
  4.5000e+07   1.53e-32
