#  E [MeV]   Flux [# cm^{-2} s^{-1}  MeV^{-1}]
  3.0000e+04   1.21e-19
  3.1033e+04   1.17e-19
  3.2102e+04   1.13e-19
  3.3207e+04   1.09e-19
  3.4350e+04   1.05e-19
  3.5533e+04   1.02e-19
  3.6757e+04   9.81e-20
  3.8022e+04   9.46e-20
  3.9332e+04   9.13e-20
  4.0686e+04   8.80e-20
  4.2087e+04   8.49e-20
  4.3536e+04   8.18e-20
  4.5035e+04   7.89e-20
  4.6586e+04   7.60e-20
  4.8190e+04   7.33e-20
  4.9850e+04   7.06e-20
  5.1566e+04   6.80e-20
  5.3342e+04   6.55e-20
  5.5178e+04   6.31e-20
  5.7078e+04   6.07e-20
  5.9044e+04   5.84e-20
  6.1077e+04   5.62e-20
  6.3180e+04   5.41e-20
  6.5356e+04   5.21e-20
  6.7606e+04   5.01e-20
  6.9934e+04   4.82e-20
  7.2342e+04   4.63e-20
  7.4833e+04   4.45e-20
  7.7410e+04   4.28e-20
  8.0075e+04   4.11e-20
  8.2833e+04   3.94e-20
  8.5685e+04   3.79e-20
  8.8635e+04   3.63e-20
  9.1687e+04   3.49e-20
  9.4844e+04   3.34e-20
  9.8110e+04   3.21e-20
  1.0149e+05   3.07e-20
  1.0498e+05   2.95e-20
  1.0860e+05   2.82e-20
  1.1234e+05   2.70e-20
  1.1621e+05   2.59e-20
  1.2021e+05   2.48e-20
  1.2435e+05   2.37e-20
  1.2863e+05   2.27e-20
  1.3306e+05   2.17e-20
  1.3764e+05   2.07e-20
  1.4238e+05   1.98e-20
  1.4728e+05   1.89e-20
  1.5235e+05   1.80e-20
  1.5760e+05   1.72e-20
  1.6302e+05   1.64e-20
  1.6864e+05   1.56e-20
  1.7445e+05   1.49e-20
  1.8045e+05   1.42e-20
  1.8667e+05   1.35e-20
  1.9309e+05   1.29e-20
  1.9974e+05   1.22e-20
  2.0662e+05   1.16e-20
  2.1373e+05   1.10e-20
  2.2109e+05   1.05e-20
  2.2871e+05   9.95e-21
  2.3658e+05   9.44e-21
  2.4473e+05   8.95e-21
  2.5316e+05   8.48e-21
  2.6187e+05   8.03e-21
  2.7089e+05   7.60e-21
  2.8022e+05   7.19e-21
  2.8987e+05   6.79e-21
  2.9985e+05   6.42e-21
  3.1017e+05   6.06e-21
  3.2085e+05   5.72e-21
  3.3190e+05   5.39e-21
  3.4333e+05   5.08e-21
  3.5515e+05   4.78e-21
  3.6738e+05   4.50e-21
  3.8003e+05   4.24e-21
  3.9312e+05   3.98e-21
  4.0665e+05   3.74e-21
  4.2066e+05   3.52e-21
  4.3514e+05   3.30e-21
  4.5013e+05   3.10e-21
  4.6562e+05   2.90e-21
  4.8166e+05   2.72e-21
  4.9824e+05   2.55e-21
  5.1540e+05   2.38e-21
  5.3315e+05   2.23e-21
  5.5150e+05   2.08e-21
  5.7050e+05   1.95e-21
  5.9014e+05   1.82e-21
  6.1046e+05   1.69e-21
  6.3148e+05   1.58e-21
  6.5322e+05   1.47e-21
  6.7572e+05   1.37e-21
  6.9898e+05   1.27e-21
  7.2305e+05   1.18e-21
  7.4795e+05   1.10e-21
  7.7371e+05   1.02e-21
  8.0035e+05   9.47e-22
  8.2791e+05   8.78e-22
  8.5641e+05   8.14e-22
  8.8590e+05   7.54e-22
  9.1641e+05   6.98e-22
  9.4796e+05   6.46e-22
  9.8061e+05   5.97e-22
  1.0144e+06   5.52e-22
  1.0493e+06   5.10e-22
  1.0854e+06   4.70e-22
  1.1228e+06   4.34e-22
  1.1615e+06   4.01e-22
  1.2015e+06   3.69e-22
  1.2428e+06   3.40e-22
  1.2856e+06   3.13e-22
  1.3299e+06   2.88e-22
  1.3757e+06   2.64e-22
  1.4231e+06   2.43e-22
  1.4721e+06   2.23e-22
  1.5228e+06   2.05e-22
  1.5752e+06   1.88e-22
  1.6294e+06   1.72e-22
  1.6855e+06   1.57e-22
  1.7436e+06   1.44e-22
  1.8036e+06   1.32e-22
  1.8657e+06   1.20e-22
  1.9300e+06   1.10e-22
  1.9964e+06   1.00e-22
  2.0652e+06   9.15e-23
  2.1363e+06   8.33e-23
  2.2098e+06   7.58e-23
  2.2859e+06   6.90e-23
  2.3646e+06   6.27e-23
  2.4461e+06   5.68e-23
  2.5303e+06   5.17e-23
  2.6174e+06   4.68e-23
  2.7075e+06   4.23e-23
  2.8008e+06   3.83e-23
  2.8972e+06   3.46e-23
  2.9970e+06   3.12e-23
  3.1002e+06   2.81e-23
  3.2069e+06   2.54e-23
  3.3173e+06   2.28e-23
  3.4316e+06   2.05e-23
  3.5497e+06   1.84e-23
  3.6720e+06   1.65e-23
  3.7984e+06   1.48e-23
  3.9292e+06   1.32e-23
  4.0645e+06   1.19e-23
  4.2044e+06   1.06e-23
  4.3492e+06   9.38e-24
  4.4990e+06   8.40e-24
  4.6539e+06   7.48e-24
  4.8141e+06   6.62e-24
  4.9799e+06   5.87e-24
  5.1514e+06   5.22e-24
  5.3288e+06   4.60e-24
  5.5123e+06   4.04e-24
  5.7021e+06   3.59e-24
  5.8984e+06   3.16e-24
  6.1015e+06   2.76e-24
  6.3116e+06   2.43e-24
  6.5289e+06   2.14e-24
  6.7538e+06   1.86e-24
  6.9863e+06   1.62e-24
  7.2269e+06   1.42e-24
  7.4757e+06   1.23e-24
  7.7331e+06   1.06e-24
  7.9994e+06   9.28e-25
  8.2749e+06   8.04e-25
  8.5598e+06   6.90e-25
  8.8546e+06   5.94e-25
  9.1594e+06   5.13e-25
  9.4748e+06   4.39e-25
  9.8011e+06   3.72e-25
  1.0139e+07   3.20e-25
  1.0488e+07   2.72e-25
  1.0849e+07   2.29e-25
  1.1222e+07   1.94e-25
  1.1609e+07   1.64e-25
  1.2009e+07   1.36e-25
  1.2422e+07   1.13e-25
  1.2850e+07   9.47e-26
  1.3292e+07   7.83e-26
  1.3750e+07   6.37e-26
  1.4223e+07   5.29e-26
  1.4713e+07   4.33e-26
  1.5220e+07   3.50e-26
  1.5744e+07   2.84e-26
  1.6286e+07   2.31e-26
  1.6847e+07   1.85e-26
  1.7427e+07   1.46e-26
  1.8027e+07   1.17e-26
  1.8648e+07   9.23e-27
  1.9290e+07   7.13e-27
  1.9954e+07   5.51e-27
  2.0641e+07   4.19e-27
  2.1352e+07   3.11e-27
  2.2087e+07   2.26e-27
  2.2848e+07   1.61e-27
  2.3634e+07   1.11e-27
  2.4448e+07   7.31e-28
  2.5290e+07   4.65e-28
