#  E [GeV]   # per interaction  [GeV^{-1}]
  3.0000e+01   1.32e-02
  3.0782e+01   1.28e-02
  3.1585e+01   1.25e-02
  3.2409e+01   1.22e-02
  3.3255e+01   1.18e-02
  3.4122e+01   1.15e-02
  3.5012e+01   1.12e-02
  3.5925e+01   1.10e-02
  3.6862e+01   1.07e-02
  3.7824e+01   1.04e-02
  3.8810e+01   1.02e-02
  3.9822e+01   9.91e-03
  4.0861e+01   9.67e-03
  4.1927e+01   9.43e-03
  4.3021e+01   9.20e-03
  4.4143e+01   8.98e-03
  4.5294e+01   8.77e-03
  4.6475e+01   8.56e-03
  4.7688e+01   8.36e-03
  4.8931e+01   8.17e-03
  5.0208e+01   7.98e-03
  5.1517e+01   7.79e-03
  5.2861e+01   7.61e-03
  5.4240e+01   7.44e-03
  5.5654e+01   7.28e-03
  5.7106e+01   7.12e-03
  5.8596e+01   6.96e-03
  6.0124e+01   6.81e-03
  6.1692e+01   6.66e-03
  6.3301e+01   6.52e-03
  6.4952e+01   6.38e-03
  6.6647e+01   6.25e-03
  6.8385e+01   6.12e-03
  7.0169e+01   6.00e-03
  7.1999e+01   5.87e-03
  7.3877e+01   5.75e-03
  7.5804e+01   5.64e-03
  7.7781e+01   5.53e-03
  7.9810e+01   5.42e-03
  8.1891e+01   5.31e-03
  8.4027e+01   5.21e-03
  8.6219e+01   5.11e-03
  8.8468e+01   5.01e-03
  9.0775e+01   4.91e-03
  9.3143e+01   4.82e-03
  9.5572e+01   4.73e-03
  9.8065e+01   4.64e-03
  1.0062e+02   4.55e-03
  1.0325e+02   4.46e-03
  1.0594e+02   4.38e-03
  1.0870e+02   4.30e-03
  1.1154e+02   4.22e-03
  1.1445e+02   4.14e-03
  1.1743e+02   4.06e-03
  1.2050e+02   3.99e-03
  1.2364e+02   3.92e-03
  1.2686e+02   3.84e-03
  1.3017e+02   3.77e-03
  1.3357e+02   3.70e-03
  1.3705e+02   3.64e-03
  1.4063e+02   3.57e-03
  1.4429e+02   3.50e-03
  1.4806e+02   3.44e-03
  1.5192e+02   3.38e-03
  1.5588e+02   3.31e-03
  1.5995e+02   3.25e-03
  1.6412e+02   3.19e-03
  1.6840e+02   3.13e-03
  1.7279e+02   3.07e-03
  1.7730e+02   3.01e-03
  1.8193e+02   2.95e-03
  1.8667e+02   2.89e-03
  1.9154e+02   2.83e-03
  1.9654e+02   2.78e-03
  2.0166e+02   2.72e-03
  2.0692e+02   2.66e-03
  2.1232e+02   2.61e-03
  2.1786e+02   2.55e-03
  2.2354e+02   2.50e-03
  2.2937e+02   2.45e-03
  2.3535e+02   2.39e-03
  2.4149e+02   2.34e-03
  2.4779e+02   2.29e-03
  2.5425e+02   2.24e-03
  2.6088e+02   2.18e-03
  2.6769e+02   2.13e-03
  2.7467e+02   2.08e-03
  2.8184e+02   2.03e-03
  2.8919e+02   1.98e-03
  2.9673e+02   1.93e-03
  3.0447e+02   1.88e-03
  3.1241e+02   1.83e-03
  3.2056e+02   1.79e-03
  3.2892e+02   1.74e-03
  3.3750e+02   1.69e-03
  3.4630e+02   1.64e-03
  3.5533e+02   1.60e-03
  3.6460e+02   1.55e-03
  3.7411e+02   1.50e-03
  3.8387e+02   1.46e-03
  3.9388e+02   1.41e-03
  4.0416e+02   1.37e-03
  4.1470e+02   1.33e-03
  4.2551e+02   1.29e-03
  4.3661e+02   1.24e-03
  4.4800e+02   1.20e-03
  4.5969e+02   1.16e-03
  4.7168e+02   1.12e-03
  4.8398e+02   1.08e-03
  4.9660e+02   1.04e-03
  5.0956e+02   1.01e-03
  5.2285e+02   9.70e-04
  5.3648e+02   9.34e-04
  5.5048e+02   8.98e-04
  5.6483e+02   8.64e-04
  5.7957e+02   8.31e-04
  5.9468e+02   7.98e-04
  6.1020e+02   7.66e-04
  6.2611e+02   7.35e-04
  6.4244e+02   7.05e-04
  6.5920e+02   6.76e-04
  6.7639e+02   6.47e-04
  6.9403e+02   6.19e-04
  7.1214e+02   5.93e-04
  7.3071e+02   5.68e-04
  7.4977e+02   5.43e-04
  7.6933e+02   5.18e-04
  7.8939e+02   4.95e-04
  8.0998e+02   4.73e-04
  8.3111e+02   4.51e-04
  8.5279e+02   4.30e-04
  8.7503e+02   4.10e-04
  8.9785e+02   3.91e-04
  9.2127e+02   3.73e-04
  9.4530e+02   3.54e-04
  9.6996e+02   3.37e-04
  9.9526e+02   3.20e-04
  1.0212e+03   3.04e-04
  1.0479e+03   2.89e-04
  1.0752e+03   2.74e-04
  1.1032e+03   2.60e-04
  1.1320e+03   2.47e-04
  1.1615e+03   2.34e-04
  1.1918e+03   2.21e-04
  1.2229e+03   2.09e-04
  1.2548e+03   1.98e-04
  1.2875e+03   1.88e-04
  1.3211e+03   1.77e-04
  1.3556e+03   1.67e-04
  1.3909e+03   1.58e-04
  1.4272e+03   1.49e-04
  1.4644e+03   1.41e-04
  1.5026e+03   1.32e-04
  1.5418e+03   1.25e-04
  1.5820e+03   1.17e-04
  1.6233e+03   1.10e-04
  1.6657e+03   1.03e-04
  1.7091e+03   9.70e-05
  1.7537e+03   9.09e-05
  1.7994e+03   8.52e-05
  1.8464e+03   7.97e-05
  1.8945e+03   7.43e-05
  1.9439e+03   6.93e-05
  1.9946e+03   6.44e-05
  2.0467e+03   5.99e-05
  2.1000e+03   5.56e-05
  2.1548e+03   5.15e-05
  2.2110e+03   4.76e-05
  2.2687e+03   4.40e-05
  2.3279e+03   4.05e-05
  2.3886e+03   3.73e-05
  2.4509e+03   3.43e-05
  2.5148e+03   3.14e-05
  2.5804e+03   2.87e-05
  2.6477e+03   2.62e-05
  2.7168e+03   2.40e-05
  2.7876e+03   2.18e-05
  2.8603e+03   1.98e-05
  2.9349e+03   1.79e-05
  3.0115e+03   1.62e-05
  3.0900e+03   1.46e-05
  3.1706e+03   1.31e-05
  3.2533e+03   1.17e-05
  3.3382e+03   1.04e-05
  3.4253e+03   9.36e-06
  3.5146e+03   8.34e-06
  3.6063e+03   7.38e-06
  3.7003e+03   6.47e-06
  3.7969e+03   5.79e-06
  3.8959e+03   5.14e-06
  3.9975e+03   4.54e-06
  4.1018e+03   3.97e-06
  4.2088e+03   3.51e-06
  4.3185e+03   3.14e-06
  4.4312e+03   2.80e-06
  4.5467e+03   2.47e-06
  4.6653e+03   2.18e-06
  4.7870e+03   2.01e-06
  4.9119e+03   1.84e-06
  5.0400e+03   1.69e-06
