#  E [MeV]   Flux [# cm^{-2} s^{-1}  MeV^{-1}]
  3.0000e+04   1.25e-25
  3.1232e+04   1.20e-25
  3.2514e+04   1.14e-25
  3.3849e+04   1.09e-25
  3.5238e+04   1.05e-25
  3.6685e+04   9.99e-26
  3.8191e+04   9.55e-26
  3.9759e+04   9.12e-26
  4.1391e+04   8.72e-26
  4.3090e+04   8.33e-26
  4.4859e+04   7.95e-26
  4.6701e+04   7.60e-26
  4.8618e+04   7.25e-26
  5.0614e+04   6.93e-26
  5.2692e+04   6.61e-26
  5.4855e+04   6.32e-26
  5.7107e+04   6.03e-26
  5.9451e+04   5.75e-26
  6.1892e+04   5.49e-26
  6.4433e+04   5.24e-26
  6.7078e+04   5.00e-26
  6.9832e+04   4.77e-26
  7.2699e+04   4.55e-26
  7.5683e+04   4.34e-26
  7.8790e+04   4.14e-26
  8.2025e+04   3.95e-26
  8.5392e+04   3.77e-26
  8.8898e+04   3.59e-26
  9.2547e+04   3.42e-26
  9.6347e+04   3.26e-26
  1.0030e+05   3.11e-26
  1.0442e+05   2.96e-26
  1.0871e+05   2.82e-26
  1.1317e+05   2.69e-26
  1.1782e+05   2.56e-26
  1.2265e+05   2.44e-26
  1.2769e+05   2.32e-26
  1.3293e+05   2.21e-26
  1.3839e+05   2.10e-26
  1.4407e+05   2.00e-26
  1.4998e+05   1.90e-26
  1.5614e+05   1.81e-26
  1.6255e+05   1.72e-26
  1.6922e+05   1.63e-26
  1.7617e+05   1.55e-26
  1.8340e+05   1.47e-26
  1.9093e+05   1.40e-26
  1.9877e+05   1.33e-26
  2.0693e+05   1.26e-26
  2.1543e+05   1.19e-26
  2.2427e+05   1.13e-26
  2.3348e+05   1.07e-26
  2.4306e+05   1.02e-26
  2.5304e+05   9.63e-27
  2.6343e+05   9.11e-27
  2.7424e+05   8.62e-27
  2.8550e+05   8.15e-27
  2.9722e+05   7.69e-27
  3.0942e+05   7.26e-27
  3.2213e+05   6.85e-27
  3.3535e+05   6.46e-27
  3.4912e+05   6.09e-27
  3.6345e+05   5.74e-27
  3.7837e+05   5.40e-27
  3.9390e+05   5.08e-27
  4.1008e+05   4.77e-27
  4.2691e+05   4.49e-27
  4.4444e+05   4.21e-27
  4.6268e+05   3.95e-27
  4.8168e+05   3.71e-27
  5.0145e+05   3.47e-27
  5.2204e+05   3.25e-27
  5.4347e+05   3.04e-27
  5.6578e+05   2.85e-27
  5.8901e+05   2.66e-27
  6.1319e+05   2.48e-27
  6.3836e+05   2.32e-27
  6.6457e+05   2.16e-27
  6.9185e+05   2.01e-27
  7.2025e+05   1.88e-27
  7.4982e+05   1.75e-27
  7.8061e+05   1.63e-27
  8.1265e+05   1.51e-27
  8.4601e+05   1.41e-27
  8.8075e+05   1.31e-27
  9.1690e+05   1.22e-27
  9.5455e+05   1.13e-27
  9.9373e+05   1.05e-27
  1.0345e+06   9.74e-28
  1.0770e+06   9.04e-28
  1.1212e+06   8.39e-28
  1.1672e+06   7.78e-28
  1.2152e+06   7.21e-28
  1.2650e+06   6.69e-28
  1.3170e+06   6.20e-28
  1.3711e+06   5.74e-28
  1.4273e+06   5.32e-28
  1.4859e+06   4.93e-28
  1.5469e+06   4.57e-28
  1.6104e+06   4.23e-28
  1.6766e+06   3.92e-28
  1.7454e+06   3.62e-28
  1.8170e+06   3.35e-28
  1.8916e+06   3.10e-28
  1.9693e+06   2.87e-28
  2.0501e+06   2.65e-28
  2.1343e+06   2.45e-28
  2.2219e+06   2.26e-28
  2.3131e+06   2.08e-28
  2.4081e+06   1.92e-28
  2.5070e+06   1.77e-28
  2.6099e+06   1.63e-28
  2.7170e+06   1.50e-28
  2.8286e+06   1.38e-28
  2.9447e+06   1.27e-28
  3.0656e+06   1.16e-28
  3.1914e+06   1.07e-28
  3.3225e+06   9.79e-29
  3.4589e+06   8.96e-29
  3.6008e+06   8.20e-29
  3.7487e+06   7.49e-29
  3.9026e+06   6.83e-29
  4.0628e+06   6.23e-29
  4.2296e+06   5.67e-29
  4.4032e+06   5.16e-29
  4.5840e+06   4.68e-29
  4.7722e+06   4.24e-29
  4.9681e+06   3.83e-29
  5.1720e+06   3.47e-29
  5.3844e+06   3.12e-29
  5.6054e+06   2.81e-29
  5.8355e+06   2.52e-29
  6.0751e+06   2.26e-29
  6.3245e+06   2.02e-29
  6.5841e+06   1.80e-29
  6.8544e+06   1.60e-29
  7.1358e+06   1.42e-29
  7.4288e+06   1.26e-29
  7.7338e+06   1.11e-29
  8.0513e+06   9.78e-30
  8.3818e+06   8.57e-30
  8.7259e+06   7.47e-30
  9.0841e+06   6.50e-30
  9.4571e+06   5.62e-30
  9.8453e+06   4.84e-30
  1.0249e+07   4.15e-30
  1.0670e+07   3.53e-30
  1.1108e+07   2.99e-30
  1.1564e+07   2.52e-30
  1.2039e+07   2.10e-30
  1.2533e+07   1.74e-30
  1.3048e+07   1.43e-30
  1.3584e+07   1.16e-30
  1.4141e+07   9.31e-31
  1.4722e+07   7.39e-31
  1.5326e+07   5.76e-31
  1.5955e+07   4.45e-31
  1.6610e+07   3.36e-31
  1.7292e+07   2.48e-31
  1.8002e+07   1.81e-31
  1.8741e+07   1.27e-31
  1.9511e+07   8.67e-32
  2.0312e+07   5.75e-32
  2.1145e+07   3.64e-32
  2.2013e+07   2.20e-32
  2.2917e+07   1.26e-32
  2.3858e+07   6.74e-33
  2.4837e+07   3.34e-33
  2.5857e+07   1.52e-33
  2.6919e+07   6.13e-34
  2.8024e+07   2.18e-34
  2.9174e+07   6.62e-35
  3.0372e+07   1.65e-35
  3.1619e+07   3.25e-36
  3.2917e+07   4.78e-37
  3.4268e+07   4.86e-38
  3.5675e+07   3.19e-39
  3.7140e+07   1.18e-40
  3.8664e+07   2.11e-42
  4.0252e+07   1.52e-44
  4.1904e+07   3.34e-47
  4.3624e+07   1.57e-50
  4.5415e+07   9.95e-55
  4.7280e+07   4.35e-60
  4.9221e+07   5.37e-67
  5.1241e+07   2.77e-71
  5.3345e+07   2.68e-71
  5.5535e+07   2.64e-71
  5.7815e+07   2.64e-71
  6.0188e+07   2.64e-71
  6.2659e+07   2.70e-71
  6.5232e+07   2.81e-71
  6.7910e+07   2.90e-71
  7.0698e+07   3.21e-71
  7.3600e+07   3.58e-71
  7.6621e+07   3.92e-71
  7.9767e+07   5.45e-71
  8.3042e+07   7.05e-71
  8.6451e+07   8.52e-71
  9.0000e+07   1.22e-70
