#  E [MeV]   Flux [# cm^{-2} s^{-1}  MeV^{-1}]
  3.0000e+04   6.66e-19
  3.0943e+04   6.40e-19
  3.1916e+04   6.15e-19
  3.2920e+04   5.91e-19
  3.3955e+04   5.67e-19
  3.5023e+04   5.45e-19
  3.6124e+04   5.23e-19
  3.7260e+04   5.02e-19
  3.8432e+04   4.82e-19
  3.9640e+04   4.63e-19
  4.0887e+04   4.45e-19
  4.2172e+04   4.27e-19
  4.3499e+04   4.10e-19
  4.4866e+04   3.93e-19
  4.6277e+04   3.77e-19
  4.7732e+04   3.62e-19
  4.9233e+04   3.47e-19
  5.0781e+04   3.33e-19
  5.2378e+04   3.19e-19
  5.4025e+04   3.06e-19
  5.5724e+04   2.94e-19
  5.7476e+04   2.82e-19
  5.9284e+04   2.70e-19
  6.1148e+04   2.59e-19
  6.3071e+04   2.48e-19
  6.5054e+04   2.38e-19
  6.7100e+04   2.28e-19
  6.9210e+04   2.19e-19
  7.1386e+04   2.10e-19
  7.3631e+04   2.01e-19
  7.5946e+04   1.92e-19
  7.8334e+04   1.84e-19
  8.0797e+04   1.76e-19
  8.3338e+04   1.69e-19
  8.5959e+04   1.62e-19
  8.8662e+04   1.55e-19
  9.1450e+04   1.48e-19
  9.4325e+04   1.42e-19
  9.7291e+04   1.36e-19
  1.0035e+05   1.30e-19
  1.0351e+05   1.24e-19
  1.0676e+05   1.19e-19
  1.1012e+05   1.14e-19
  1.1358e+05   1.09e-19
  1.1715e+05   1.04e-19
  1.2084e+05   9.91e-20
  1.2464e+05   9.46e-20
  1.2856e+05   9.04e-20
  1.3260e+05   8.63e-20
  1.3677e+05   8.23e-20
  1.4107e+05   7.85e-20
  1.4550e+05   7.49e-20
  1.5008e+05   7.14e-20
  1.5480e+05   6.80e-20
  1.5967e+05   6.48e-20
  1.6469e+05   6.16e-20
  1.6987e+05   5.87e-20
  1.7521e+05   5.58e-20
  1.8072e+05   5.30e-20
  1.8640e+05   5.04e-20
  1.9226e+05   4.78e-20
  1.9831e+05   4.54e-20
  2.0454e+05   4.31e-20
  2.1097e+05   4.09e-20
  2.1761e+05   3.87e-20
  2.2445e+05   3.67e-20
  2.3151e+05   3.48e-20
  2.3879e+05   3.30e-20
  2.4630e+05   3.13e-20
  2.5404e+05   2.96e-20
  2.6203e+05   2.81e-20
  2.7027e+05   2.66e-20
  2.7877e+05   2.52e-20
  2.8753e+05   2.38e-20
  2.9657e+05   2.25e-20
  3.0590e+05   2.13e-20
  3.1552e+05   2.01e-20
  3.2544e+05   1.90e-20
  3.3567e+05   1.80e-20
  3.4623e+05   1.70e-20
  3.5712e+05   1.60e-20
  3.6835e+05   1.51e-20
  3.7993e+05   1.42e-20
  3.9188e+05   1.34e-20
  4.0420e+05   1.26e-20
  4.1691e+05   1.19e-20
  4.3002e+05   1.12e-20
  4.4354e+05   1.05e-20
  4.5749e+05   9.86e-21
  4.7187e+05   9.26e-21
  4.8671e+05   8.68e-21
  5.0202e+05   8.14e-21
  5.1780e+05   7.63e-21
  5.3409e+05   7.15e-21
  5.5088e+05   6.69e-21
  5.6820e+05   6.26e-21
  5.8607e+05   5.85e-21
  6.0450e+05   5.46e-21
  6.2351e+05   5.10e-21
  6.4311e+05   4.76e-21
  6.6334e+05   4.44e-21
  6.8419e+05   4.13e-21
  7.0571e+05   3.85e-21
  7.2790e+05   3.58e-21
  7.5079e+05   3.33e-21
  7.7440e+05   3.09e-21
  7.9875e+05   2.86e-21
  8.2387e+05   2.66e-21
  8.4977e+05   2.46e-21
  8.7649e+05   2.27e-21
  9.0405e+05   2.11e-21
  9.3248e+05   1.95e-21
  9.6180e+05   1.80e-21
  9.9205e+05   1.66e-21
  1.0232e+06   1.53e-21
  1.0554e+06   1.41e-21
  1.0886e+06   1.30e-21
  1.1228e+06   1.19e-21
  1.1581e+06   1.10e-21
  1.1946e+06   1.01e-21
  1.2321e+06   9.20e-22
  1.2709e+06   8.44e-22
  1.3108e+06   7.74e-22
  1.3521e+06   7.07e-22
  1.3946e+06   6.44e-22
  1.4384e+06   5.89e-22
  1.4837e+06   5.37e-22
  1.5303e+06   4.88e-22
  1.5784e+06   4.43e-22
  1.6281e+06   4.03e-22
  1.6793e+06   3.65e-22
  1.7321e+06   3.30e-22
  1.7865e+06   2.99e-22
  1.8427e+06   2.71e-22
  1.9006e+06   2.44e-22
  1.9604e+06   2.19e-22
  2.0221e+06   1.98e-22
  2.0856e+06   1.79e-22
  2.1512e+06   1.61e-22
  2.2189e+06   1.43e-22
  2.2886e+06   1.29e-22
  2.3606e+06   1.16e-22
  2.4348e+06   1.03e-22
  2.5114e+06   9.22e-23
  2.5904e+06   8.27e-23
  2.6718e+06   7.37e-23
  2.7558e+06   6.52e-23
  2.8425e+06   5.81e-23
  2.9319e+06   5.18e-23
  3.0241e+06   4.58e-23
  3.1192e+06   4.01e-23
  3.2173e+06   3.58e-23
  3.3184e+06   3.17e-23
  3.4228e+06   2.78e-23
  3.5304e+06   2.43e-23
  3.6414e+06   2.16e-23
  3.7559e+06   1.90e-23
  3.8740e+06   1.65e-23
  3.9958e+06   1.45e-23
  4.1215e+06   1.28e-23
  4.2511e+06   1.11e-23
  4.3848e+06   9.61e-24
  4.5227e+06   8.46e-24
  4.6649e+06   7.41e-24
  4.8116e+06   6.42e-24
  4.9629e+06   5.52e-24
  5.1189e+06   4.86e-24
  5.2799e+06   4.23e-24
  5.4459e+06   3.64e-24
  5.6171e+06   3.15e-24
  5.7938e+06   2.76e-24
  5.9760e+06   2.39e-24
  6.1639e+06   2.05e-24
  6.3577e+06   1.79e-24
  6.5576e+06   1.57e-24
  6.7638e+06   1.36e-24
  6.9765e+06   1.16e-24
  7.1959e+06   1.03e-24
  7.4222e+06   9.03e-25
  7.6556e+06   7.85e-25
  7.8963e+06   6.82e-25
  8.1446e+06   6.05e-25
  8.4007e+06   5.33e-25
  8.6649e+06   4.66e-25
  8.9373e+06   4.12e-25
  9.2184e+06   3.69e-25
  9.5082e+06   3.29e-25
  9.8072e+06   2.91e-25
  1.0116e+07   2.62e-25
  1.0434e+07   2.37e-25
  1.0762e+07   2.13e-25
  1.1100e+07   1.90e-25
  1.1449e+07   1.71e-25
  1.1809e+07   1.54e-25
  1.2181e+07   1.37e-25
  1.2564e+07   1.22e-25
  1.2959e+07   1.08e-25
  1.3366e+07   9.50e-26
  1.3786e+07   8.30e-26
  1.4220e+07   7.33e-26
