#  E [MeV]   Flux [# cm^{-2} s^{-1}  MeV^{-1}]
  3.0000e+04   9.07e-27
  3.1141e+04   8.72e-27
  3.2326e+04   8.39e-27
  3.3556e+04   8.07e-27
  3.4832e+04   7.75e-27
  3.6157e+04   7.45e-27
  3.7533e+04   7.16e-27
  3.8961e+04   6.88e-27
  4.0443e+04   6.61e-27
  4.1982e+04   6.34e-27
  4.3579e+04   6.09e-27
  4.5237e+04   5.84e-27
  4.6958e+04   5.61e-27
  4.8744e+04   5.38e-27
  5.0598e+04   5.15e-27
  5.2523e+04   4.94e-27
  5.4521e+04   4.74e-27
  5.6596e+04   4.54e-27
  5.8749e+04   4.35e-27
  6.0984e+04   4.17e-27
  6.3304e+04   3.99e-27
  6.5712e+04   3.82e-27
  6.8212e+04   3.65e-27
  7.0807e+04   3.50e-27
  7.3500e+04   3.34e-27
  7.6297e+04   3.20e-27
  7.9199e+04   3.06e-27
  8.2212e+04   2.92e-27
  8.5340e+04   2.79e-27
  8.8586e+04   2.66e-27
  9.1956e+04   2.54e-27
  9.5455e+04   2.43e-27
  9.9086e+04   2.32e-27
  1.0286e+05   2.21e-27
  1.0677e+05   2.11e-27
  1.1083e+05   2.01e-27
  1.1505e+05   1.91e-27
  1.1942e+05   1.82e-27
  1.2397e+05   1.74e-27
  1.2868e+05   1.65e-27
  1.3358e+05   1.57e-27
  1.3866e+05   1.50e-27
  1.4394e+05   1.42e-27
  1.4941e+05   1.35e-27
  1.5509e+05   1.28e-27
  1.6100e+05   1.22e-27
  1.6712e+05   1.16e-27
  1.7348e+05   1.10e-27
  1.8008e+05   1.04e-27
  1.8693e+05   9.85e-28
  1.9404e+05   9.33e-28
  2.0142e+05   8.84e-28
  2.0908e+05   8.36e-28
  2.1704e+05   7.91e-28
  2.2529e+05   7.47e-28
  2.3387e+05   7.06e-28
  2.4276e+05   6.66e-28
  2.5200e+05   6.28e-28
  2.6158e+05   5.92e-28
  2.7154e+05   5.58e-28
  2.8187e+05   5.25e-28
  2.9259e+05   4.94e-28
  3.0372e+05   4.65e-28
  3.1527e+05   4.37e-28
  3.2727e+05   4.10e-28
  3.3972e+05   3.84e-28
  3.5264e+05   3.60e-28
  3.6606e+05   3.38e-28
  3.7998e+05   3.16e-28
  3.9444e+05   2.96e-28
  4.0945e+05   2.76e-28
  4.2502e+05   2.58e-28
  4.4119e+05   2.41e-28
  4.5798e+05   2.25e-28
  4.7540e+05   2.09e-28
  4.9348e+05   1.95e-28
  5.1226e+05   1.82e-28
  5.3175e+05   1.69e-28
  5.5198e+05   1.57e-28
  5.7297e+05   1.46e-28
  5.9477e+05   1.36e-28
  6.1740e+05   1.26e-28
  6.4089e+05   1.17e-28
  6.6527e+05   1.08e-28
  6.9058e+05   1.01e-28
  7.1685e+05   9.32e-29
  7.4412e+05   8.63e-29
  7.7243e+05   8.00e-29
  8.0181e+05   7.42e-29
  8.3232e+05   6.87e-29
  8.6398e+05   6.37e-29
  8.9685e+05   5.91e-29
  9.3097e+05   5.48e-29
  9.6638e+05   5.08e-29
  1.0031e+06   4.71e-29
  1.0413e+06   4.37e-29
  1.0809e+06   4.06e-29
  1.1220e+06   3.77e-29
  1.1647e+06   3.50e-29
  1.2090e+06   3.25e-29
  1.2550e+06   3.02e-29
  1.3028e+06   2.81e-29
  1.3523e+06   2.61e-29
  1.4038e+06   2.43e-29
  1.4572e+06   2.27e-29
  1.5126e+06   2.11e-29
  1.5702e+06   1.97e-29
  1.6299e+06   1.84e-29
  1.6919e+06   1.71e-29
  1.7563e+06   1.60e-29
  1.8231e+06   1.50e-29
  1.8925e+06   1.40e-29
  1.9645e+06   1.31e-29
  2.0392e+06   1.22e-29
  2.1168e+06   1.14e-29
  2.1973e+06   1.07e-29
  2.2809e+06   1.00e-29
  2.3677e+06   9.40e-30
  2.4577e+06   8.81e-30
  2.5512e+06   8.26e-30
  2.6483e+06   7.74e-30
  2.7490e+06   7.26e-30
  2.8536e+06   6.80e-30
  2.9622e+06   6.37e-30
  3.0749e+06   5.98e-30
  3.1918e+06   5.60e-30
  3.3133e+06   5.25e-30
  3.4393e+06   4.92e-30
  3.5702e+06   4.61e-30
  3.7060e+06   4.32e-30
  3.8470e+06   4.04e-30
  3.9933e+06   3.78e-30
  4.1452e+06   3.53e-30
  4.3029e+06   3.30e-30
  4.4666e+06   3.08e-30
  4.6366e+06   2.87e-30
  4.8129e+06   2.67e-30
  4.9960e+06   2.48e-30
  5.1861e+06   2.31e-30
  5.3834e+06   2.14e-30
  5.5882e+06   1.98e-30
  5.8008e+06   1.83e-30
  6.0215e+06   1.69e-30
  6.2506e+06   1.56e-30
  6.4883e+06   1.43e-30
  6.7352e+06   1.31e-30
  6.9914e+06   1.20e-30
  7.2574e+06   1.09e-30
  7.5335e+06   9.90e-31
  7.8201e+06   8.96e-31
  8.1176e+06   8.06e-31
  8.4264e+06   7.23e-31
  8.7470e+06   6.44e-31
  9.0797e+06   5.71e-31
  9.4251e+06   5.03e-31
  9.7837e+06   4.41e-31
  1.0156e+07   3.83e-31
  1.0542e+07   3.30e-31
  1.0943e+07   2.82e-31
  1.1360e+07   2.39e-31
  1.1792e+07   2.00e-31
  1.2240e+07   1.65e-31
  1.2706e+07   1.35e-31
  1.3189e+07   1.08e-31
  1.3691e+07   8.55e-32
  1.4212e+07   6.63e-32
  1.4753e+07   5.04e-32
  1.5314e+07   3.74e-32
  1.5897e+07   2.70e-32
  1.6501e+07   1.90e-32
  1.7129e+07   1.29e-32
  1.7781e+07   8.43e-33
  1.8457e+07   5.28e-33
  1.9159e+07   3.15e-33
  1.9888e+07   1.78e-33
  2.0645e+07   9.41e-34
  2.1430e+07   4.62e-34
  2.2245e+07   2.09e-34
  2.3092e+07   8.55e-35
  2.3970e+07   3.12e-35
  2.4882e+07   9.96e-36
  2.5829e+07   2.72e-36
  2.6811e+07   6.17e-37
  2.7831e+07   1.13e-37
  2.8890e+07   1.58e-38
  2.9989e+07   1.63e-39
  3.1130e+07   1.16e-40
  3.2314e+07   5.26e-42
  3.3544e+07   1.38e-43
  3.4820e+07   1.86e-45
  3.6144e+07   1.11e-47
  3.7519e+07   2.39e-50
  3.8947e+07   1.46e-53
  4.0428e+07   1.85e-57
  4.1966e+07   3.19e-62
  4.3563e+07   4.36e-68
  4.5220e+07   3.67e-71
  4.6941e+07   3.45e-71
  4.8726e+07   3.26e-71
  5.0580e+07   3.09e-71
