#  E [MeV]   Flux [# cm^{-2} s^{-1}  MeV^{-1}]
  3.0000e+04   2.46e-18
  3.0943e+04   2.38e-18
  3.1916e+04   2.29e-18
  3.2920e+04   2.21e-18
  3.3955e+04   2.14e-18
  3.5023e+04   2.06e-18
  3.6124e+04   1.99e-18
  3.7260e+04   1.92e-18
  3.8432e+04   1.85e-18
  3.9640e+04   1.79e-18
  4.0887e+04   1.73e-18
  4.2172e+04   1.66e-18
  4.3499e+04   1.60e-18
  4.4866e+04   1.55e-18
  4.6277e+04   1.49e-18
  4.7732e+04   1.44e-18
  4.9233e+04   1.38e-18
  5.0781e+04   1.33e-18
  5.2378e+04   1.28e-18
  5.4025e+04   1.24e-18
  5.5724e+04   1.19e-18
  5.7476e+04   1.15e-18
  5.9284e+04   1.10e-18
  6.1148e+04   1.06e-18
  6.3071e+04   1.02e-18
  6.5054e+04   9.81e-19
  6.7100e+04   9.43e-19
  6.9210e+04   9.06e-19
  7.1386e+04   8.71e-19
  7.3631e+04   8.37e-19
  7.5946e+04   8.04e-19
  7.8334e+04   7.72e-19
  8.0797e+04   7.41e-19
  8.3338e+04   7.12e-19
  8.5959e+04   6.83e-19
  8.8662e+04   6.55e-19
  9.1450e+04   6.28e-19
  9.4325e+04   6.03e-19
  9.7291e+04   5.78e-19
  1.0035e+05   5.54e-19
  1.0351e+05   5.30e-19
  1.0676e+05   5.08e-19
  1.1012e+05   4.86e-19
  1.1358e+05   4.66e-19
  1.1715e+05   4.46e-19
  1.2084e+05   4.26e-19
  1.2464e+05   4.08e-19
  1.2856e+05   3.90e-19
  1.3260e+05   3.73e-19
  1.3677e+05   3.56e-19
  1.4107e+05   3.40e-19
  1.4550e+05   3.25e-19
  1.5008e+05   3.10e-19
  1.5480e+05   2.96e-19
  1.5967e+05   2.83e-19
  1.6469e+05   2.70e-19
  1.6987e+05   2.57e-19
  1.7521e+05   2.45e-19
  1.8072e+05   2.34e-19
  1.8640e+05   2.23e-19
  1.9226e+05   2.12e-19
  1.9831e+05   2.02e-19
  2.0454e+05   1.92e-19
  2.1097e+05   1.83e-19
  2.1761e+05   1.74e-19
  2.2445e+05   1.66e-19
  2.3151e+05   1.57e-19
  2.3879e+05   1.50e-19
  2.4630e+05   1.42e-19
  2.5404e+05   1.35e-19
  2.6203e+05   1.28e-19
  2.7027e+05   1.22e-19
  2.7877e+05   1.15e-19
  2.8753e+05   1.10e-19
  2.9657e+05   1.04e-19
  3.0590e+05   9.85e-20
  3.1552e+05   9.33e-20
  3.2544e+05   8.84e-20
  3.3567e+05   8.37e-20
  3.4623e+05   7.93e-20
  3.5712e+05   7.50e-20
  3.6835e+05   7.09e-20
  3.7993e+05   6.70e-20
  3.9188e+05   6.33e-20
  4.0420e+05   5.98e-20
  4.1691e+05   5.65e-20
  4.3002e+05   5.33e-20
  4.4354e+05   5.03e-20
  4.5749e+05   4.74e-20
  4.7187e+05   4.47e-20
  4.8671e+05   4.21e-20
  5.0202e+05   3.97e-20
  5.1780e+05   3.74e-20
  5.3409e+05   3.52e-20
  5.5088e+05   3.31e-20
  5.6820e+05   3.11e-20
  5.8607e+05   2.93e-20
  6.0450e+05   2.75e-20
  6.2351e+05   2.58e-20
  6.4311e+05   2.43e-20
  6.6334e+05   2.28e-20
  6.8419e+05   2.14e-20
  7.0571e+05   2.00e-20
  7.2790e+05   1.88e-20
  7.5079e+05   1.76e-20
  7.7440e+05   1.64e-20
  7.9875e+05   1.54e-20
  8.2387e+05   1.44e-20
  8.4977e+05   1.35e-20
  8.7649e+05   1.26e-20
  9.0405e+05   1.18e-20
  9.3248e+05   1.10e-20
  9.6180e+05   1.02e-20
  9.9205e+05   9.55e-21
  1.0232e+06   8.92e-21
  1.0554e+06   8.31e-21
  1.0886e+06   7.74e-21
  1.1228e+06   7.20e-21
  1.1581e+06   6.71e-21
  1.1946e+06   6.24e-21
  1.2321e+06   5.79e-21
  1.2709e+06   5.39e-21
  1.3108e+06   5.01e-21
  1.3521e+06   4.65e-21
  1.3946e+06   4.31e-21
  1.4384e+06   4.00e-21
  1.4837e+06   3.71e-21
  1.5303e+06   3.43e-21
  1.5784e+06   3.17e-21
  1.6281e+06   2.94e-21
  1.6793e+06   2.72e-21
  1.7321e+06   2.51e-21
  1.7865e+06   2.32e-21
  1.8427e+06   2.14e-21
  1.9006e+06   1.98e-21
  1.9604e+06   1.82e-21
  2.0221e+06   1.68e-21
  2.0856e+06   1.55e-21
  2.1512e+06   1.42e-21
  2.2189e+06   1.31e-21
  2.2886e+06   1.20e-21
  2.3606e+06   1.11e-21
  2.4348e+06   1.02e-21
  2.5114e+06   9.30e-22
  2.5904e+06   8.56e-22
  2.6718e+06   7.85e-22
  2.7558e+06   7.18e-22
  2.8425e+06   6.57e-22
  2.9319e+06   6.03e-22
  3.0241e+06   5.52e-22
  3.1192e+06   5.03e-22
  3.2173e+06   4.60e-22
  3.3184e+06   4.21e-22
  3.4228e+06   3.84e-22
  3.5304e+06   3.49e-22
  3.6414e+06   3.20e-22
  3.7559e+06   2.92e-22
  3.8740e+06   2.66e-22
  3.9958e+06   2.42e-22
  4.1215e+06   2.22e-22
  4.2511e+06   2.03e-22
  4.3848e+06   1.84e-22
  4.5227e+06   1.68e-22
  4.6649e+06   1.54e-22
  4.8116e+06   1.41e-22
  4.9629e+06   1.28e-22
  5.1189e+06   1.18e-22
  5.2799e+06   1.08e-22
  5.4459e+06   9.93e-23
  5.6171e+06   9.09e-23
  5.7938e+06   8.42e-23
  5.9760e+06   7.79e-23
  6.1639e+06   7.19e-23
  6.3577e+06   6.68e-23
  6.5576e+06   6.24e-23
  6.7638e+06   5.83e-23
  6.9765e+06   5.43e-23
  7.1959e+06   5.12e-23
  7.4222e+06   4.85e-23
  7.6556e+06   4.59e-23
  7.8963e+06   4.34e-23
  8.1446e+06   4.17e-23
  8.4007e+06   4.00e-23
  8.6649e+06   3.84e-23
  8.9373e+06   3.72e-23
  9.2184e+06   3.66e-23
  9.5082e+06   3.60e-23
  9.8072e+06   3.54e-23
  1.0116e+07   3.54e-23
  1.0434e+07   3.59e-23
  1.0762e+07   3.63e-23
  1.1100e+07   3.65e-23
  1.1449e+07   3.91e-23
  1.1809e+07   4.17e-23
  1.2181e+07   4.40e-23
  1.2564e+07   4.74e-23
  1.2959e+07   5.74e-23
  1.3366e+07   6.65e-23
  1.3786e+07   7.46e-23
  1.4220e+07   7.91e-23
