#  E [MeV]   Flux [# cm^{-2} s^{-1}  MeV^{-1}]
  3.0000e+04   2.20e-25
  3.1141e+04   2.10e-25
  3.2326e+04   2.01e-25
  3.3556e+04   1.92e-25
  3.4832e+04   1.84e-25
  3.6157e+04   1.75e-25
  3.7533e+04   1.68e-25
  3.8961e+04   1.60e-25
  4.0443e+04   1.53e-25
  4.1982e+04   1.46e-25
  4.3579e+04   1.39e-25
  4.5237e+04   1.33e-25
  4.6958e+04   1.27e-25
  4.8744e+04   1.21e-25
  5.0598e+04   1.16e-25
  5.2523e+04   1.10e-25
  5.4521e+04   1.05e-25
  5.6596e+04   1.00e-25
  5.8749e+04   9.55e-26
  6.0984e+04   9.10e-26
  6.3304e+04   8.67e-26
  6.5712e+04   8.26e-26
  6.8212e+04   7.87e-26
  7.0807e+04   7.50e-26
  7.3500e+04   7.14e-26
  7.6297e+04   6.79e-26
  7.9199e+04   6.47e-26
  8.2212e+04   6.15e-26
  8.5340e+04   5.85e-26
  8.8586e+04   5.57e-26
  9.1956e+04   5.29e-26
  9.5455e+04   5.03e-26
  9.9086e+04   4.78e-26
  1.0286e+05   4.54e-26
  1.0677e+05   4.32e-26
  1.1083e+05   4.10e-26
  1.1505e+05   3.89e-26
  1.1942e+05   3.70e-26
  1.2397e+05   3.51e-26
  1.2868e+05   3.33e-26
  1.3358e+05   3.15e-26
  1.3866e+05   2.99e-26
  1.4394e+05   2.83e-26
  1.4941e+05   2.68e-26
  1.5509e+05   2.54e-26
  1.6100e+05   2.41e-26
  1.6712e+05   2.28e-26
  1.7348e+05   2.15e-26
  1.8008e+05   2.04e-26
  1.8693e+05   1.92e-26
  1.9404e+05   1.82e-26
  2.0142e+05   1.71e-26
  2.0908e+05   1.62e-26
  2.1704e+05   1.53e-26
  2.2529e+05   1.44e-26
  2.3387e+05   1.35e-26
  2.4276e+05   1.27e-26
  2.5200e+05   1.20e-26
  2.6158e+05   1.13e-26
  2.7154e+05   1.06e-26
  2.8187e+05   9.93e-27
  2.9259e+05   9.32e-27
  3.0372e+05   8.73e-27
  3.1527e+05   8.17e-27
  3.2727e+05   7.64e-27
  3.3972e+05   7.14e-27
  3.5264e+05   6.67e-27
  3.6606e+05   6.22e-27
  3.7998e+05   5.80e-27
  3.9444e+05   5.40e-27
  4.0945e+05   5.03e-27
  4.2502e+05   4.67e-27
  4.4119e+05   4.34e-27
  4.5798e+05   4.03e-27
  4.7540e+05   3.73e-27
  4.9348e+05   3.46e-27
  5.1226e+05   3.20e-27
  5.3175e+05   2.96e-27
  5.5198e+05   2.73e-27
  5.7297e+05   2.52e-27
  5.9477e+05   2.33e-27
  6.1740e+05   2.15e-27
  6.4089e+05   1.98e-27
  6.6527e+05   1.82e-27
  6.9058e+05   1.67e-27
  7.1685e+05   1.54e-27
  7.4412e+05   1.42e-27
  7.7243e+05   1.30e-27
  8.0181e+05   1.19e-27
  8.3232e+05   1.10e-27
  8.6398e+05   1.01e-27
  8.9685e+05   9.22e-28
  9.3097e+05   8.45e-28
  9.6638e+05   7.75e-28
  1.0031e+06   7.10e-28
  1.0413e+06   6.50e-28
  1.0809e+06   5.95e-28
  1.1220e+06   5.45e-28
  1.1647e+06   4.99e-28
  1.2090e+06   4.56e-28
  1.2550e+06   4.17e-28
  1.3028e+06   3.81e-28
  1.3523e+06   3.49e-28
  1.4038e+06   3.19e-28
  1.4572e+06   2.91e-28
  1.5126e+06   2.66e-28
  1.5702e+06   2.43e-28
  1.6299e+06   2.21e-28
  1.6919e+06   2.02e-28
  1.7563e+06   1.84e-28
  1.8231e+06   1.68e-28
  1.8925e+06   1.53e-28
  1.9645e+06   1.39e-28
  2.0392e+06   1.26e-28
  2.1168e+06   1.15e-28
  2.1973e+06   1.04e-28
  2.2809e+06   9.48e-29
  2.3677e+06   8.58e-29
  2.4577e+06   7.78e-29
  2.5512e+06   7.04e-29
  2.6483e+06   6.35e-29
  2.7490e+06   5.74e-29
  2.8536e+06   5.17e-29
  2.9622e+06   4.65e-29
  3.0749e+06   4.18e-29
  3.1918e+06   3.76e-29
  3.3133e+06   3.36e-29
  3.4393e+06   3.01e-29
  3.5702e+06   2.69e-29
  3.7060e+06   2.39e-29
  3.8470e+06   2.13e-29
  3.9933e+06   1.90e-29
  4.1452e+06   1.68e-29
  4.3029e+06   1.48e-29
  4.4666e+06   1.31e-29
  4.6366e+06   1.15e-29
  4.8129e+06   1.01e-29
  4.9960e+06   8.86e-30
  5.1861e+06   7.72e-30
  5.3834e+06   6.70e-30
  5.5882e+06   5.83e-30
  5.8008e+06   5.04e-30
  6.0215e+06   4.32e-30
  6.2506e+06   3.73e-30
  6.4883e+06   3.19e-30
  6.7352e+06   2.70e-30
  6.9914e+06   2.30e-30
  7.2574e+06   1.95e-30
  7.5335e+06   1.63e-30
  7.8201e+06   1.37e-30
  8.1176e+06   1.14e-30
  8.4264e+06   9.37e-31
  8.7470e+06   7.76e-31
  9.0797e+06   6.35e-31
  9.4251e+06   5.12e-31
  9.7837e+06   4.15e-31
  1.0156e+07   3.32e-31
  1.0542e+07   2.61e-31
  1.0943e+07   2.06e-31
  1.1360e+07   1.60e-31
  1.1792e+07   1.22e-31
  1.2240e+07   9.32e-32
  1.2706e+07   7.02e-32
  1.3189e+07   5.15e-32
  1.3691e+07   3.75e-32
  1.4212e+07   2.69e-32
  1.4753e+07   1.88e-32
  1.5314e+07   1.29e-32
  1.5897e+07   8.66e-33
  1.6501e+07   5.61e-33
  1.7129e+07   3.54e-33
  1.7781e+07   2.17e-33
  1.8457e+07   1.26e-33
  1.9159e+07   7.05e-34
  1.9888e+07   3.77e-34
  2.0645e+07   1.88e-34
  2.1430e+07   8.75e-35
  2.2245e+07   3.80e-35
  2.3092e+07   1.49e-35
  2.3970e+07   5.24e-36
  2.4882e+07   1.63e-36
  2.5829e+07   4.35e-37
  2.6811e+07   9.63e-38
  2.7831e+07   1.74e-38
  2.8890e+07   2.43e-39
  2.9989e+07   2.49e-40
  3.1130e+07   1.79e-41
  3.2314e+07   8.25e-43
  3.3544e+07   2.21e-44
  3.4820e+07   3.11e-46
  3.6144e+07   1.94e-48
  3.7519e+07   4.47e-51
  3.8947e+07   2.96e-54
  4.0428e+07   4.13e-58
  4.1966e+07   8.06e-63
  4.3563e+07   1.29e-68
  4.5220e+07   2.86e-72
  4.6941e+07   2.57e-72
  4.8726e+07   2.35e-72
  5.0580e+07   2.15e-72
