#  E [MeV]   Flux [# cm^{-2} s^{-1}  MeV^{-1}]
  3.0000e+04   9.94e-26
  3.1141e+04   9.57e-26
  3.2326e+04   9.20e-26
  3.3556e+04   8.86e-26
  3.4832e+04   8.52e-26
  3.6157e+04   8.20e-26
  3.7533e+04   7.88e-26
  3.8961e+04   7.58e-26
  4.0443e+04   7.29e-26
  4.1982e+04   7.00e-26
  4.3579e+04   6.73e-26
  4.5237e+04   6.46e-26
  4.6958e+04   6.21e-26
  4.8744e+04   5.96e-26
  5.0598e+04   5.72e-26
  5.2523e+04   5.49e-26
  5.4521e+04   5.27e-26
  5.6596e+04   5.06e-26
  5.8749e+04   4.85e-26
  6.0984e+04   4.66e-26
  6.3304e+04   4.47e-26
  6.5712e+04   4.28e-26
  6.8212e+04   4.11e-26
  7.0807e+04   3.94e-26
  7.3500e+04   3.77e-26
  7.6297e+04   3.61e-26
  7.9199e+04   3.46e-26
  8.2212e+04   3.32e-26
  8.5340e+04   3.18e-26
  8.8586e+04   3.04e-26
  9.1956e+04   2.91e-26
  9.5455e+04   2.78e-26
  9.9086e+04   2.67e-26
  1.0286e+05   2.55e-26
  1.0677e+05   2.44e-26
  1.1083e+05   2.33e-26
  1.1505e+05   2.23e-26
  1.1942e+05   2.13e-26
  1.2397e+05   2.04e-26
  1.2868e+05   1.95e-26
  1.3358e+05   1.86e-26
  1.3866e+05   1.78e-26
  1.4394e+05   1.70e-26
  1.4941e+05   1.62e-26
  1.5509e+05   1.55e-26
  1.6100e+05   1.48e-26
  1.6712e+05   1.41e-26
  1.7348e+05   1.35e-26
  1.8008e+05   1.29e-26
  1.8693e+05   1.23e-26
  1.9404e+05   1.17e-26
  2.0142e+05   1.12e-26
  2.0908e+05   1.07e-26
  2.1704e+05   1.02e-26
  2.2529e+05   9.75e-27
  2.3387e+05   9.31e-27
  2.4276e+05   8.88e-27
  2.5200e+05   8.47e-27
  2.6158e+05   8.09e-27
  2.7154e+05   7.72e-27
  2.8187e+05   7.36e-27
  2.9259e+05   7.03e-27
  3.0372e+05   6.71e-27
  3.1527e+05   6.40e-27
  3.2727e+05   6.12e-27
  3.3972e+05   5.84e-27
  3.5264e+05   5.58e-27
  3.6606e+05   5.33e-27
  3.7998e+05   5.09e-27
  3.9444e+05   4.86e-27
  4.0945e+05   4.65e-27
  4.2502e+05   4.44e-27
  4.4119e+05   4.25e-27
  4.5798e+05   4.06e-27
  4.7540e+05   3.89e-27
  4.9348e+05   3.72e-27
  5.1226e+05   3.56e-27
  5.3175e+05   3.41e-27
  5.5198e+05   3.26e-27
  5.7297e+05   3.13e-27
  5.9477e+05   3.00e-27
  6.1740e+05   2.87e-27
  6.4089e+05   2.76e-27
  6.6527e+05   2.65e-27
  6.9058e+05   2.54e-27
  7.1685e+05   2.44e-27
  7.4412e+05   2.35e-27
  7.7243e+05   2.25e-27
  8.0181e+05   2.17e-27
  8.3232e+05   2.09e-27
  8.6398e+05   2.01e-27
  8.9685e+05   1.93e-27
  9.3097e+05   1.86e-27
  9.6638e+05   1.80e-27
  1.0031e+06   1.73e-27
  1.0413e+06   1.67e-27
  1.0809e+06   1.61e-27
  1.1220e+06   1.56e-27
  1.1647e+06   1.51e-27
  1.2090e+06   1.46e-27
  1.2550e+06   1.41e-27
  1.3028e+06   1.36e-27
  1.3523e+06   1.32e-27
  1.4038e+06   1.28e-27
  1.4572e+06   1.24e-27
  1.5126e+06   1.20e-27
  1.5702e+06   1.16e-27
  1.6299e+06   1.12e-27
  1.6919e+06   1.09e-27
  1.7563e+06   1.06e-27
  1.8231e+06   1.02e-27
  1.8925e+06   9.94e-28
  1.9645e+06   9.64e-28
  2.0392e+06   9.36e-28
  2.1168e+06   9.08e-28
  2.1973e+06   8.81e-28
  2.2809e+06   8.56e-28
  2.3677e+06   8.31e-28
  2.4577e+06   8.06e-28
  2.5512e+06   7.83e-28
  2.6483e+06   7.60e-28
  2.7490e+06   7.37e-28
  2.8536e+06   7.15e-28
  2.9622e+06   6.94e-28
  3.0749e+06   6.73e-28
  3.1918e+06   6.52e-28
  3.3133e+06   6.32e-28
  3.4393e+06   6.13e-28
  3.5702e+06   5.93e-28
  3.7060e+06   5.74e-28
  3.8470e+06   5.56e-28
  3.9933e+06   5.38e-28
  4.1452e+06   5.20e-28
  4.3029e+06   5.02e-28
  4.4666e+06   4.85e-28
  4.6366e+06   4.68e-28
  4.8129e+06   4.51e-28
  4.9960e+06   4.35e-28
  5.1861e+06   4.18e-28
  5.3834e+06   4.02e-28
  5.5882e+06   3.87e-28
  5.8008e+06   3.71e-28
  6.0215e+06   3.56e-28
  6.2506e+06   3.41e-28
  6.4883e+06   3.26e-28
  6.7352e+06   3.11e-28
  6.9914e+06   2.97e-28
  7.2574e+06   2.83e-28
  7.5335e+06   2.69e-28
  7.8201e+06   2.56e-28
  8.1176e+06   2.43e-28
  8.4264e+06   2.30e-28
  8.7470e+06   2.17e-28
  9.0797e+06   2.05e-28
  9.4251e+06   1.93e-28
  9.7837e+06   1.81e-28
  1.0156e+07   1.70e-28
  1.0542e+07   1.58e-28
  1.0943e+07   1.48e-28
  1.1360e+07   1.37e-28
  1.1792e+07   1.27e-28
  1.2240e+07   1.17e-28
  1.2706e+07   1.08e-28
  1.3189e+07   9.83e-29
  1.3691e+07   8.96e-29
  1.4212e+07   8.13e-29
  1.4753e+07   7.33e-29
  1.5314e+07   6.58e-29
  1.5897e+07   5.87e-29
  1.6501e+07   5.20e-29
  1.7129e+07   4.57e-29
  1.7781e+07   3.98e-29
  1.8457e+07   3.44e-29
  1.9159e+07   2.94e-29
  1.9888e+07   2.49e-29
  2.0645e+07   2.07e-29
  2.1430e+07   1.70e-29
  2.2245e+07   1.37e-29
  2.3092e+07   1.09e-29
  2.3970e+07   8.40e-30
  2.4882e+07   6.34e-30
  2.5829e+07   4.66e-30
  2.6811e+07   3.30e-30
  2.7831e+07   2.25e-30
  2.8890e+07   1.47e-30
  2.9989e+07   9.10e-31
  3.1130e+07   5.25e-31
  3.2314e+07   2.83e-31
  3.3544e+07   1.38e-31
  3.4820e+07   6.00e-32
  3.6144e+07   2.30e-32
  3.7519e+07   7.44e-33
  3.8947e+07   1.94e-33
  4.0428e+07   3.97e-34
  4.1966e+07   5.89e-35
  4.3563e+07   5.76e-36
  4.5220e+07   3.41e-37
  4.6941e+07   1.04e-38
  4.8726e+07   1.32e-40
  5.0580e+07   5.50e-43
