#  E [GeV]   # per interaction  [GeV^{-1}]
  3.0000e+01   5.54e-01
  3.0872e+01   5.33e-01
  3.1770e+01   5.14e-01
  3.2694e+01   4.94e-01
  3.3644e+01   4.76e-01
  3.4623e+01   4.58e-01
  3.5629e+01   4.41e-01
  3.6665e+01   4.24e-01
  3.7731e+01   4.08e-01
  3.8829e+01   3.93e-01
  3.9958e+01   3.78e-01
  4.1119e+01   3.63e-01
  4.2315e+01   3.50e-01
  4.3545e+01   3.36e-01
  4.4812e+01   3.23e-01
  4.6115e+01   3.11e-01
  4.7456e+01   2.99e-01
  4.8835e+01   2.87e-01
  5.0255e+01   2.76e-01
  5.1717e+01   2.65e-01
  5.3220e+01   2.55e-01
  5.4768e+01   2.45e-01
  5.6360e+01   2.35e-01
  5.7999e+01   2.26e-01
  5.9686e+01   2.17e-01
  6.1421e+01   2.08e-01
  6.3207e+01   2.00e-01
  6.5045e+01   1.92e-01
  6.6936e+01   1.84e-01
  6.8882e+01   1.76e-01
  7.0885e+01   1.69e-01
  7.2947e+01   1.62e-01
  7.5068e+01   1.55e-01
  7.7250e+01   1.49e-01
  7.9496e+01   1.42e-01
  8.1808e+01   1.36e-01
  8.4187e+01   1.30e-01
  8.6635e+01   1.25e-01
  8.9154e+01   1.19e-01
  9.1746e+01   1.14e-01
  9.4414e+01   1.09e-01
  9.7159e+01   1.04e-01
  9.9984e+01   9.95e-02
  1.0289e+02   9.50e-02
  1.0588e+02   9.06e-02
  1.0896e+02   8.63e-02
  1.1213e+02   8.23e-02
  1.1539e+02   7.83e-02
  1.1875e+02   7.46e-02
  1.2220e+02   7.10e-02
  1.2575e+02   6.75e-02
  1.2941e+02   6.42e-02
  1.3317e+02   6.11e-02
  1.3704e+02   5.81e-02
  1.4103e+02   5.52e-02
  1.4513e+02   5.24e-02
  1.4935e+02   4.98e-02
  1.5369e+02   4.73e-02
  1.5816e+02   4.49e-02
  1.6276e+02   4.26e-02
  1.6749e+02   4.04e-02
  1.7236e+02   3.83e-02
  1.7737e+02   3.63e-02
  1.8253e+02   3.44e-02
  1.8784e+02   3.26e-02
  1.9330e+02   3.08e-02
  1.9892e+02   2.91e-02
  2.0470e+02   2.75e-02
  2.1066e+02   2.60e-02
  2.1678e+02   2.45e-02
  2.2309e+02   2.31e-02
  2.2957e+02   2.18e-02
  2.3625e+02   2.05e-02
  2.4312e+02   1.93e-02
  2.5019e+02   1.81e-02
  2.5746e+02   1.70e-02
  2.6495e+02   1.60e-02
  2.7265e+02   1.50e-02
  2.8058e+02   1.40e-02
  2.8874e+02   1.31e-02
  2.9713e+02   1.23e-02
  3.0577e+02   1.15e-02
  3.1466e+02   1.07e-02
  3.2381e+02   9.99e-03
  3.3323e+02   9.31e-03
  3.4292e+02   8.66e-03
  3.5289e+02   8.05e-03
  3.6315e+02   7.48e-03
  3.7371e+02   6.94e-03
  3.8457e+02   6.43e-03
  3.9576e+02   5.96e-03
  4.0726e+02   5.50e-03
  4.1911e+02   5.09e-03
  4.3129e+02   4.69e-03
  4.4383e+02   4.32e-03
  4.5674e+02   3.98e-03
  4.7002e+02   3.66e-03
  4.8368e+02   3.36e-03
  4.9775e+02   3.08e-03
  5.1222e+02   2.82e-03
  5.2712e+02   2.58e-03
  5.4244e+02   2.36e-03
  5.5821e+02   2.16e-03
  5.7445e+02   1.97e-03
  5.9115e+02   1.79e-03
  6.0834e+02   1.64e-03
  6.2603e+02   1.49e-03
  6.4423e+02   1.35e-03
  6.6296e+02   1.23e-03
  6.8224e+02   1.11e-03
  7.0208e+02   1.01e-03
  7.2249e+02   9.11e-04
  7.4350e+02   8.24e-04
  7.6512e+02   7.46e-04
  7.8736e+02   6.73e-04
  8.1026e+02   6.06e-04
  8.3382e+02   5.46e-04
  8.5806e+02   4.93e-04
  8.8301e+02   4.43e-04
  9.0869e+02   3.97e-04
  9.3511e+02   3.57e-04
  9.6230e+02   3.21e-04
  9.9028e+02   2.87e-04
  1.0191e+03   2.57e-04
  1.0487e+03   2.30e-04
  1.0792e+03   2.06e-04
  1.1106e+03   1.84e-04
  1.1429e+03   1.64e-04
  1.1761e+03   1.47e-04
  1.2103e+03   1.31e-04
  1.2455e+03   1.17e-04
  1.2817e+03   1.04e-04
  1.3190e+03   9.28e-05
  1.3573e+03   8.29e-05
  1.3968e+03   7.37e-05
  1.4374e+03   6.52e-05
  1.4792e+03   5.80e-05
  1.5222e+03   5.17e-05
  1.5665e+03   4.59e-05
  1.6120e+03   4.05e-05
  1.6589e+03   3.59e-05
  1.7071e+03   3.19e-05
  1.7568e+03   2.82e-05
  1.8079e+03   2.48e-05
  1.8604e+03   2.19e-05
  1.9145e+03   1.94e-05
  1.9702e+03   1.71e-05
  2.0275e+03   1.49e-05
  2.0864e+03   1.32e-05
  2.1471e+03   1.16e-05
  2.2095e+03   1.02e-05
  2.2738e+03   8.90e-06
  2.3399e+03   7.80e-06
  2.4079e+03   6.88e-06
  2.4779e+03   6.02e-06
  2.5500e+03   5.22e-06
  2.6241e+03   4.55e-06
  2.7004e+03   4.00e-06
  2.7790e+03   3.49e-06
  2.8598e+03   3.01e-06
  2.9429e+03   2.61e-06
  3.0285e+03   2.29e-06
  3.1165e+03   1.99e-06
  3.2072e+03   1.71e-06
  3.3004e+03   1.48e-06
  3.3964e+03   1.29e-06
  3.4951e+03   1.12e-06
  3.5968e+03   9.57e-07
  3.7013e+03   8.24e-07
  3.8090e+03   7.19e-07
  3.9197e+03   6.22e-07
  4.0337e+03   5.32e-07
  4.1510e+03   4.58e-07
  4.2717e+03   4.00e-07
  4.3959e+03   3.46e-07
  4.5237e+03   2.97e-07
  4.6552e+03   2.56e-07
  4.7906e+03   2.24e-07
  4.9299e+03   1.95e-07
  5.0732e+03   1.68e-07
  5.2208e+03   1.45e-07
  5.3726e+03   1.28e-07
  5.5288e+03   1.12e-07
  5.6895e+03   9.73e-08
  5.8550e+03   8.48e-08
  6.0252e+03   7.48e-08
  6.2004e+03   6.56e-08
  6.3807e+03   5.72e-08
  6.5662e+03   4.98e-08
  6.7572e+03   4.34e-08
  6.9536e+03   3.75e-08
  7.1558e+03   3.23e-08
  7.3639e+03   2.76e-08
  7.5780e+03   2.35e-08
  7.7984e+03   1.98e-08
  8.0251e+03   1.66e-08
  8.2585e+03   1.38e-08
  8.4986e+03   1.17e-08
  8.7457e+03   9.77e-09
  9.0000e+03   8.10e-09
