#  E [MeV]   Flux [# cm^{-2} s^{-1}  MeV^{-1}]
  3.0000e+04   2.04e-20
  3.1123e+04   1.96e-20
  3.2288e+04   1.89e-20
  3.3497e+04   1.81e-20
  3.4751e+04   1.74e-20
  3.6051e+04   1.67e-20
  3.7401e+04   1.61e-20
  3.8801e+04   1.54e-20
  4.0253e+04   1.48e-20
  4.1760e+04   1.42e-20
  4.3324e+04   1.37e-20
  4.4945e+04   1.31e-20
  4.6628e+04   1.26e-20
  4.8373e+04   1.21e-20
  5.0184e+04   1.16e-20
  5.2063e+04   1.11e-20
  5.4011e+04   1.07e-20
  5.6033e+04   1.02e-20
  5.8131e+04   9.81e-21
  6.0307e+04   9.41e-21
  6.2564e+04   9.02e-21
  6.4906e+04   8.65e-21
  6.7336e+04   8.29e-21
  6.9857e+04   7.95e-21
  7.2472e+04   7.62e-21
  7.5184e+04   7.30e-21
  7.7999e+04   6.99e-21
  8.0919e+04   6.69e-21
  8.3948e+04   6.41e-21
  8.7090e+04   6.13e-21
  9.0350e+04   5.87e-21
  9.3732e+04   5.62e-21
  9.7241e+04   5.37e-21
  1.0088e+05   5.14e-21
  1.0466e+05   4.91e-21
  1.0858e+05   4.69e-21
  1.1264e+05   4.48e-21
  1.1686e+05   4.28e-21
  1.2123e+05   4.09e-21
  1.2577e+05   3.90e-21
  1.3048e+05   3.72e-21
  1.3536e+05   3.55e-21
  1.4043e+05   3.39e-21
  1.4568e+05   3.23e-21
  1.5114e+05   3.07e-21
  1.5680e+05   2.92e-21
  1.6266e+05   2.78e-21
  1.6875e+05   2.65e-21
  1.7507e+05   2.52e-21
  1.8162e+05   2.39e-21
  1.8842e+05   2.27e-21
  1.9548e+05   2.15e-21
  2.0279e+05   2.04e-21
  2.1039e+05   1.93e-21
  2.1826e+05   1.83e-21
  2.2643e+05   1.73e-21
  2.3491e+05   1.64e-21
  2.4370e+05   1.55e-21
  2.5282e+05   1.46e-21
  2.6229e+05   1.38e-21
  2.7211e+05   1.30e-21
  2.8229e+05   1.22e-21
  2.9286e+05   1.15e-21
  3.0382e+05   1.08e-21
  3.1519e+05   1.02e-21
  3.2699e+05   9.52e-22
  3.3923e+05   8.92e-22
  3.5193e+05   8.35e-22
  3.6511e+05   7.81e-22
  3.7877e+05   7.29e-22
  3.9295e+05   6.80e-22
  4.0766e+05   6.34e-22
  4.2292e+05   5.91e-22
  4.3875e+05   5.49e-22
  4.5518e+05   5.11e-22
  4.7222e+05   4.74e-22
  4.8989e+05   4.40e-22
  5.0823e+05   4.07e-22
  5.2726e+05   3.77e-22
  5.4699e+05   3.49e-22
  5.6747e+05   3.22e-22
  5.8871e+05   2.97e-22
  6.1075e+05   2.74e-22
  6.3361e+05   2.53e-22
  6.5733e+05   2.33e-22
  6.8194e+05   2.14e-22
  7.0746e+05   1.97e-22
  7.3395e+05   1.81e-22
  7.6142e+05   1.67e-22
  7.8992e+05   1.53e-22
  8.1949e+05   1.41e-22
  8.5017e+05   1.29e-22
  8.8199e+05   1.18e-22
  9.1501e+05   1.09e-22
  9.4926e+05   9.97e-23
  9.8479e+05   9.15e-23
  1.0217e+06   8.39e-23
  1.0599e+06   7.69e-23
  1.0996e+06   7.05e-23
  1.1407e+06   6.47e-23
  1.1834e+06   5.93e-23
  1.2277e+06   5.44e-23
  1.2737e+06   4.98e-23
  1.3214e+06   4.57e-23
  1.3708e+06   4.19e-23
  1.4222e+06   3.84e-23
  1.4754e+06   3.52e-23
  1.5306e+06   3.23e-23
  1.5879e+06   2.96e-23
  1.6474e+06   2.72e-23
  1.7090e+06   2.49e-23
  1.7730e+06   2.28e-23
  1.8394e+06   2.09e-23
  1.9082e+06   1.92e-23
  1.9797e+06   1.76e-23
  2.0538e+06   1.61e-23
  2.1306e+06   1.47e-23
  2.2104e+06   1.35e-23
  2.2931e+06   1.23e-23
  2.3790e+06   1.13e-23
  2.4680e+06   1.03e-23
  2.5604e+06   9.37e-24
  2.6563e+06   8.54e-24
  2.7557e+06   7.78e-24
  2.8589e+06   7.08e-24
  2.9659e+06   6.43e-24
  3.0769e+06   5.84e-24
  3.1921e+06   5.29e-24
  3.3116e+06   4.78e-24
  3.4355e+06   4.33e-24
  3.5641e+06   3.91e-24
  3.6976e+06   3.51e-24
  3.8360e+06   3.16e-24
  3.9796e+06   2.84e-24
  4.1285e+06   2.54e-24
  4.2831e+06   2.27e-24
  4.4434e+06   2.02e-24
  4.6097e+06   1.79e-24
  4.7823e+06   1.59e-24
  4.9613e+06   1.41e-24
  5.1470e+06   1.24e-24
  5.3397e+06   1.09e-24
  5.5396e+06   9.51e-25
  5.7470e+06   8.27e-25
  5.9621e+06   7.18e-25
  6.1853e+06   6.22e-25
  6.4168e+06   5.34e-25
  6.6570e+06   4.57e-25
  6.9062e+06   3.90e-25
  7.1647e+06   3.30e-25
  7.4329e+06   2.77e-25
  7.7112e+06   2.33e-25
  7.9998e+06   1.93e-25
  8.2993e+06   1.59e-25
  8.6100e+06   1.30e-25
  8.9323e+06   1.06e-25
  9.2666e+06   8.45e-26
  9.6135e+06   6.75e-26
  9.9734e+06   5.31e-26
  1.0347e+07   4.11e-26
  1.0734e+07   3.16e-26
  1.1136e+07   2.39e-26
  1.1553e+07   1.77e-26
  1.1985e+07   1.30e-26
  1.2434e+07   9.37e-27
  1.2899e+07   6.57e-27
  1.3382e+07   4.52e-27
  1.3883e+07   3.05e-27
  1.4403e+07   1.99e-27
  1.4942e+07   1.25e-27
  1.5501e+07   7.73e-28
  1.6081e+07   4.55e-28
  1.6683e+07   2.55e-28
  1.7308e+07   1.38e-28
  1.7956e+07   7.04e-29
  1.8628e+07   3.34e-29
  1.9325e+07   1.51e-29
  2.0049e+07   6.26e-30
  2.0799e+07   2.34e-30
  2.1578e+07   8.10e-31
  2.2386e+07   2.48e-31
  2.3224e+07   6.51e-32
  2.4093e+07   1.50e-32
  2.4995e+07   2.89e-33
  2.5930e+07   4.43e-34
  2.6901e+07   5.42e-35
  2.7908e+07   4.99e-36
  2.8953e+07   3.22e-37
  3.0037e+07   1.41e-38
  3.1161e+07   3.83e-40
  3.2327e+07   5.79e-42
  3.3537e+07   4.42e-44
  3.4793e+07   1.50e-46
  3.6095e+07   1.82e-49
  3.7446e+07   6.38e-53
  3.8848e+07   4.95e-57
  4.0302e+07   5.72e-62
  4.1811e+07   1.25e-67
  4.3376e+07   9.54e-68
  4.5000e+07   6.77e-68
