#  E [GeV]   # per interaction  [GeV^{-1}]
  3.0000e+01   3.06e-02
  3.1232e+01   2.94e-02
  3.2514e+01   2.83e-02
  3.3849e+01   2.72e-02
  3.5238e+01   2.61e-02
  3.6685e+01   2.51e-02
  3.8191e+01   2.41e-02
  3.9759e+01   2.31e-02
  4.1391e+01   2.22e-02
  4.3090e+01   2.13e-02
  4.4859e+01   2.05e-02
  4.6701e+01   1.97e-02
  4.8618e+01   1.89e-02
  5.0614e+01   1.81e-02
  5.2692e+01   1.74e-02
  5.4855e+01   1.66e-02
  5.7107e+01   1.60e-02
  5.9451e+01   1.53e-02
  6.1892e+01   1.47e-02
  6.4433e+01   1.40e-02
  6.7078e+01   1.34e-02
  6.9832e+01   1.29e-02
  7.2699e+01   1.23e-02
  7.5683e+01   1.18e-02
  7.8790e+01   1.13e-02
  8.2025e+01   1.08e-02
  8.5392e+01   1.03e-02
  8.8898e+01   9.87e-03
  9.2547e+01   9.44e-03
  9.6347e+01   9.02e-03
  1.0030e+02   8.62e-03
  1.0442e+02   8.23e-03
  1.0871e+02   7.86e-03
  1.1317e+02   7.51e-03
  1.1782e+02   7.16e-03
  1.2265e+02   6.84e-03
  1.2769e+02   6.52e-03
  1.3293e+02   6.22e-03
  1.3839e+02   5.93e-03
  1.4407e+02   5.65e-03
  1.4998e+02   5.38e-03
  1.5614e+02   5.13e-03
  1.6255e+02   4.88e-03
  1.6922e+02   4.64e-03
  1.7617e+02   4.42e-03
  1.8340e+02   4.20e-03
  1.9093e+02   4.00e-03
  1.9877e+02   3.80e-03
  2.0693e+02   3.61e-03
  2.1543e+02   3.43e-03
  2.2427e+02   3.26e-03
  2.3348e+02   3.09e-03
  2.4306e+02   2.94e-03
  2.5304e+02   2.78e-03
  2.6343e+02   2.64e-03
  2.7424e+02   2.50e-03
  2.8550e+02   2.37e-03
  2.9722e+02   2.25e-03
  3.0942e+02   2.13e-03
  3.2213e+02   2.01e-03
  3.3535e+02   1.90e-03
  3.4912e+02   1.80e-03
  3.6345e+02   1.70e-03
  3.7837e+02   1.61e-03
  3.9390e+02   1.52e-03
  4.1008e+02   1.44e-03
  4.2691e+02   1.36e-03
  4.4444e+02   1.28e-03
  4.6268e+02   1.21e-03
  4.8168e+02   1.14e-03
  5.0145e+02   1.08e-03
  5.2204e+02   1.02e-03
  5.4347e+02   9.58e-04
  5.6578e+02   9.03e-04
  5.8901e+02   8.52e-04
  6.1319e+02   8.03e-04
  6.3836e+02   7.57e-04
  6.6457e+02   7.14e-04
  6.9185e+02   6.74e-04
  7.2025e+02   6.36e-04
  7.4982e+02   6.00e-04
  7.8061e+02   5.67e-04
  8.1265e+02   5.36e-04
  8.4601e+02   5.06e-04
  8.8075e+02   4.79e-04
  9.1690e+02   4.53e-04
  9.5455e+02   4.28e-04
  9.9373e+02   4.06e-04
  1.0345e+03   3.85e-04
  1.0770e+03   3.65e-04
  1.1212e+03   3.46e-04
  1.1672e+03   3.29e-04
  1.2152e+03   3.12e-04
  1.2650e+03   2.97e-04
  1.3170e+03   2.83e-04
  1.3711e+03   2.69e-04
  1.4273e+03   2.57e-04
  1.4859e+03   2.45e-04
  1.5469e+03   2.34e-04
  1.6104e+03   2.24e-04
  1.6766e+03   2.14e-04
  1.7454e+03   2.05e-04
  1.8170e+03   1.96e-04
  1.8916e+03   1.88e-04
  1.9693e+03   1.80e-04
  2.0501e+03   1.73e-04
  2.1343e+03   1.66e-04
  2.2219e+03   1.59e-04
  2.3131e+03   1.53e-04
  2.4081e+03   1.47e-04
  2.5070e+03   1.42e-04
  2.6099e+03   1.37e-04
  2.7170e+03   1.31e-04
  2.8286e+03   1.26e-04
  2.9447e+03   1.22e-04
  3.0656e+03   1.17e-04
  3.1914e+03   1.13e-04
  3.3225e+03   1.09e-04
  3.4589e+03   1.05e-04
  3.6008e+03   1.01e-04
  3.7487e+03   9.69e-05
  3.9026e+03   9.31e-05
  4.0628e+03   8.95e-05
  4.2296e+03   8.60e-05
  4.4032e+03   8.25e-05
  4.5840e+03   7.92e-05
  4.7722e+03   7.59e-05
  4.9681e+03   7.27e-05
  5.1720e+03   6.95e-05
  5.3844e+03   6.64e-05
  5.6054e+03   6.34e-05
  5.8355e+03   6.04e-05
  6.0751e+03   5.75e-05
  6.3245e+03   5.45e-05
  6.5841e+03   5.17e-05
  6.8544e+03   4.89e-05
  7.1358e+03   4.61e-05
  7.4288e+03   4.34e-05
  7.7338e+03   4.08e-05
  8.0513e+03   3.82e-05
  8.3818e+03   3.56e-05
  8.7259e+03   3.31e-05
  9.0841e+03   3.06e-05
  9.4571e+03   2.82e-05
  9.8453e+03   2.59e-05
  1.0249e+04   2.37e-05
  1.0670e+04   2.15e-05
  1.1108e+04   1.94e-05
  1.1564e+04   1.74e-05
  1.2039e+04   1.54e-05
  1.2533e+04   1.36e-05
  1.3048e+04   1.19e-05
  1.3584e+04   1.03e-05
  1.4141e+04   8.78e-06
  1.4722e+04   7.40e-06
  1.5326e+04   6.15e-06
  1.5955e+04   5.03e-06
  1.6610e+04   4.03e-06
  1.7292e+04   3.17e-06
  1.8002e+04   2.42e-06
  1.8741e+04   1.80e-06
  1.9511e+04   1.30e-06
  2.0312e+04   9.04e-07
  2.1145e+04   6.02e-07
  2.2013e+04   3.81e-07
  2.2917e+04   2.28e-07
  2.3858e+04   1.27e-07
  2.4837e+04   6.56e-08
  2.5857e+04   3.07e-08
  2.6919e+04   1.28e-08
  2.8024e+04   4.69e-09
  2.9174e+04   1.45e-09
  3.0372e+04   3.69e-10
  3.1619e+04   7.35e-11
  3.2917e+04   1.09e-11
  3.4268e+04   1.11e-12
  3.5675e+04   7.18e-14
  3.7140e+04   2.61e-15
  3.8664e+04   4.57e-17
  4.0252e+04   3.17e-19
  4.1904e+04   6.67e-22
  4.3624e+04   2.98e-25
  4.5415e+04   1.77e-29
  4.7280e+04   7.18e-35
  4.9221e+04   8.17e-42
  5.1241e+04   3.83e-46
  5.3345e+04   3.35e-46
  5.5535e+04   2.92e-46
  5.7815e+04   2.54e-46
  6.0188e+04   2.19e-46
  6.2659e+04   1.89e-46
  6.5232e+04   1.62e-46
  6.7910e+04   1.38e-46
  7.0698e+04   1.19e-46
  7.3600e+04   1.02e-46
  7.6621e+04   8.66e-47
  7.9767e+04   7.57e-47
  8.3042e+04   6.60e-47
  8.6451e+04   5.70e-47
  9.0000e+04   5.21e-47
