#  E [GeV]   # per interaction  [GeV^{-1}]
  3.0000e+01   5.83e-01
  3.0872e+01   5.61e-01
  3.1770e+01   5.41e-01
  3.2694e+01   5.20e-01
  3.3644e+01   5.01e-01
  3.4623e+01   4.82e-01
  3.5629e+01   4.64e-01
  3.6665e+01   4.47e-01
  3.7731e+01   4.30e-01
  3.8829e+01   4.14e-01
  3.9958e+01   3.98e-01
  4.1119e+01   3.83e-01
  4.2315e+01   3.68e-01
  4.3545e+01   3.54e-01
  4.4812e+01   3.41e-01
  4.6115e+01   3.28e-01
  4.7456e+01   3.15e-01
  4.8835e+01   3.03e-01
  5.0255e+01   2.91e-01
  5.1717e+01   2.80e-01
  5.3220e+01   2.69e-01
  5.4768e+01   2.59e-01
  5.6360e+01   2.49e-01
  5.7999e+01   2.39e-01
  5.9686e+01   2.29e-01
  6.1421e+01   2.20e-01
  6.3207e+01   2.11e-01
  6.5045e+01   2.03e-01
  6.6936e+01   1.95e-01
  6.8882e+01   1.87e-01
  7.0885e+01   1.79e-01
  7.2947e+01   1.72e-01
  7.5068e+01   1.65e-01
  7.7250e+01   1.58e-01
  7.9496e+01   1.52e-01
  8.1808e+01   1.45e-01
  8.4187e+01   1.39e-01
  8.6635e+01   1.33e-01
  8.9154e+01   1.28e-01
  9.1746e+01   1.22e-01
  9.4414e+01   1.17e-01
  9.7159e+01   1.12e-01
  9.9984e+01   1.07e-01
  1.0289e+02   1.02e-01
  1.0588e+02   9.74e-02
  1.0896e+02   9.30e-02
  1.1213e+02   8.87e-02
  1.1539e+02   8.45e-02
  1.1875e+02   8.06e-02
  1.2220e+02   7.68e-02
  1.2575e+02   7.31e-02
  1.2941e+02   6.97e-02
  1.3317e+02   6.63e-02
  1.3704e+02   6.31e-02
  1.4103e+02   6.01e-02
  1.4513e+02   5.72e-02
  1.4935e+02   5.44e-02
  1.5369e+02   5.17e-02
  1.5816e+02   4.92e-02
  1.6276e+02   4.68e-02
  1.6749e+02   4.44e-02
  1.7236e+02   4.22e-02
  1.7737e+02   4.01e-02
  1.8253e+02   3.81e-02
  1.8784e+02   3.61e-02
  1.9330e+02   3.43e-02
  1.9892e+02   3.25e-02
  2.0470e+02   3.08e-02
  2.1066e+02   2.92e-02
  2.1678e+02   2.76e-02
  2.2309e+02   2.62e-02
  2.2957e+02   2.47e-02
  2.3625e+02   2.34e-02
  2.4312e+02   2.21e-02
  2.5019e+02   2.08e-02
  2.5746e+02   1.97e-02
  2.6495e+02   1.85e-02
  2.7265e+02   1.75e-02
  2.8058e+02   1.64e-02
  2.8874e+02   1.55e-02
  2.9713e+02   1.45e-02
  3.0577e+02   1.37e-02
  3.1466e+02   1.28e-02
  3.2381e+02   1.20e-02
  3.3323e+02   1.13e-02
  3.4292e+02   1.06e-02
  3.5289e+02   9.90e-03
  3.6315e+02   9.26e-03
  3.7371e+02   8.66e-03
  3.8457e+02   8.08e-03
  3.9576e+02   7.55e-03
  4.0726e+02   7.04e-03
  4.1911e+02   6.55e-03
  4.3129e+02   6.10e-03
  4.4383e+02   5.67e-03
  4.5674e+02   5.27e-03
  4.7002e+02   4.89e-03
  4.8368e+02   4.53e-03
  4.9775e+02   4.20e-03
  5.1222e+02   3.89e-03
  5.2712e+02   3.59e-03
  5.4244e+02   3.32e-03
  5.5821e+02   3.07e-03
  5.7445e+02   2.83e-03
  5.9115e+02   2.60e-03
  6.0834e+02   2.40e-03
  6.2603e+02   2.21e-03
  6.4423e+02   2.03e-03
  6.6296e+02   1.86e-03
  6.8224e+02   1.71e-03
  7.0208e+02   1.57e-03
  7.2249e+02   1.43e-03
  7.4350e+02   1.31e-03
  7.6512e+02   1.20e-03
  7.8736e+02   1.09e-03
  8.1026e+02   9.99e-04
  8.3382e+02   9.10e-04
  8.5806e+02   8.28e-04
  8.8301e+02   7.54e-04
  9.0869e+02   6.86e-04
  9.3511e+02   6.21e-04
  9.6230e+02   5.63e-04
  9.9028e+02   5.12e-04
  1.0191e+03   4.64e-04
  1.0487e+03   4.19e-04
  1.0792e+03   3.78e-04
  1.1106e+03   3.43e-04
  1.1429e+03   3.09e-04
  1.1761e+03   2.78e-04
  1.2103e+03   2.50e-04
  1.2455e+03   2.26e-04
  1.2817e+03   2.04e-04
  1.3190e+03   1.83e-04
  1.3573e+03   1.64e-04
  1.3968e+03   1.48e-04
  1.4374e+03   1.32e-04
  1.4792e+03   1.18e-04
  1.5222e+03   1.06e-04
  1.5665e+03   9.49e-05
  1.6120e+03   8.50e-05
  1.6589e+03   7.56e-05
  1.7071e+03   6.71e-05
  1.7568e+03   6.02e-05
  1.8079e+03   5.36e-05
  1.8604e+03   4.75e-05
  1.9145e+03   4.19e-05
  1.9702e+03   3.75e-05
  2.0275e+03   3.33e-05
  2.0864e+03   2.93e-05
  2.1471e+03   2.58e-05
  2.2095e+03   2.30e-05
  2.2738e+03   2.03e-05
  2.3399e+03   1.79e-05
  2.4079e+03   1.56e-05
  2.4779e+03   1.39e-05
  2.5500e+03   1.23e-05
  2.6241e+03   1.07e-05
  2.7004e+03   9.31e-06
  2.7790e+03   8.25e-06
  2.8598e+03   7.26e-06
  2.9429e+03   6.31e-06
  3.0285e+03   5.46e-06
  3.1165e+03   4.83e-06
  3.2072e+03   4.24e-06
  3.3004e+03   3.68e-06
  3.3964e+03   3.17e-06
  3.4951e+03   2.80e-06
  3.5968e+03   2.45e-06
  3.7013e+03   2.12e-06
  3.8090e+03   1.82e-06
  3.9197e+03   1.60e-06
  4.0337e+03   1.40e-06
  4.1510e+03   1.22e-06
  4.2717e+03   1.04e-06
  4.3959e+03   9.24e-07
  4.5237e+03   8.12e-07
  4.6552e+03   7.06e-07
  4.7906e+03   6.10e-07
  4.9299e+03   5.42e-07
  5.0732e+03   4.78e-07
  5.2208e+03   4.18e-07
  5.3726e+03   3.64e-07
  5.5288e+03   3.26e-07
  5.6895e+03   2.91e-07
  5.8550e+03   2.58e-07
  6.0252e+03   2.28e-07
  6.2004e+03   2.05e-07
  6.3807e+03   1.84e-07
  6.5662e+03   1.64e-07
  6.7572e+03   1.46e-07
  6.9536e+03   1.31e-07
  7.1558e+03   1.16e-07
  7.3639e+03   1.03e-07
  7.5780e+03   9.09e-08
  7.7984e+03   8.01e-08
  8.0251e+03   7.02e-08
  8.2585e+03   6.10e-08
  8.4986e+03   5.26e-08
  8.7457e+03   4.64e-08
  9.0000e+03   4.07e-08
