#  E [GeV]   # per interaction  [GeV^{-1}]
  3.0000e+01   6.59e-01
  3.1141e+01   6.34e-01
  3.2326e+01   6.09e-01
  3.3556e+01   5.85e-01
  3.4832e+01   5.62e-01
  3.6157e+01   5.40e-01
  3.7533e+01   5.19e-01
  3.8961e+01   4.99e-01
  4.0443e+01   4.79e-01
  4.1982e+01   4.60e-01
  4.3579e+01   4.42e-01
  4.5237e+01   4.24e-01
  4.6958e+01   4.07e-01
  4.8744e+01   3.91e-01
  5.0598e+01   3.76e-01
  5.2523e+01   3.61e-01
  5.4521e+01   3.46e-01
  5.6596e+01   3.32e-01
  5.8749e+01   3.19e-01
  6.0984e+01   3.06e-01
  6.3304e+01   2.93e-01
  6.5712e+01   2.82e-01
  6.8212e+01   2.70e-01
  7.0807e+01   2.59e-01
  7.3500e+01   2.48e-01
  7.6297e+01   2.38e-01
  7.9199e+01   2.28e-01
  8.2212e+01   2.19e-01
  8.5340e+01   2.10e-01
  8.8586e+01   2.01e-01
  9.1956e+01   1.92e-01
  9.5455e+01   1.84e-01
  9.9086e+01   1.77e-01
  1.0286e+02   1.69e-01
  1.0677e+02   1.62e-01
  1.1083e+02   1.55e-01
  1.1505e+02   1.48e-01
  1.1942e+02   1.42e-01
  1.2397e+02   1.35e-01
  1.2868e+02   1.29e-01
  1.3358e+02   1.24e-01
  1.3866e+02   1.18e-01
  1.4394e+02   1.13e-01
  1.4941e+02   1.08e-01
  1.5509e+02   1.03e-01
  1.6100e+02   9.80e-02
  1.6712e+02   9.34e-02
  1.7348e+02   8.91e-02
  1.8008e+02   8.48e-02
  1.8693e+02   8.08e-02
  1.9404e+02   7.69e-02
  2.0142e+02   7.31e-02
  2.0908e+02   6.96e-02
  2.1704e+02   6.61e-02
  2.2529e+02   6.28e-02
  2.3387e+02   5.96e-02
  2.4276e+02   5.66e-02
  2.5200e+02   5.37e-02
  2.6158e+02   5.09e-02
  2.7154e+02   4.82e-02
  2.8187e+02   4.56e-02
  2.9259e+02   4.31e-02
  3.0372e+02   4.08e-02
  3.1527e+02   3.85e-02
  3.2727e+02   3.64e-02
  3.3972e+02   3.43e-02
  3.5264e+02   3.23e-02
  3.6606e+02   3.04e-02
  3.7998e+02   2.86e-02
  3.9444e+02   2.69e-02
  4.0945e+02   2.53e-02
  4.2502e+02   2.37e-02
  4.4119e+02   2.23e-02
  4.5798e+02   2.09e-02
  4.7540e+02   1.96e-02
  4.9348e+02   1.83e-02
  5.1226e+02   1.71e-02
  5.3175e+02   1.60e-02
  5.5198e+02   1.49e-02
  5.7297e+02   1.39e-02
  5.9477e+02   1.30e-02
  6.1740e+02   1.21e-02
  6.4089e+02   1.13e-02
  6.6527e+02   1.05e-02
  6.9058e+02   9.74e-03
  7.1685e+02   9.05e-03
  7.4412e+02   8.41e-03
  7.7243e+02   7.80e-03
  8.0181e+02   7.24e-03
  8.3232e+02   6.72e-03
  8.6398e+02   6.22e-03
  8.9685e+02   5.77e-03
  9.3097e+02   5.34e-03
  9.6638e+02   4.95e-03
  1.0031e+03   4.58e-03
  1.0413e+03   4.24e-03
  1.0809e+03   3.92e-03
  1.1220e+03   3.62e-03
  1.1647e+03   3.35e-03
  1.2090e+03   3.09e-03
  1.2550e+03   2.85e-03
  1.3028e+03   2.63e-03
  1.3523e+03   2.43e-03
  1.4038e+03   2.24e-03
  1.4572e+03   2.06e-03
  1.5126e+03   1.90e-03
  1.5702e+03   1.75e-03
  1.6299e+03   1.61e-03
  1.6919e+03   1.48e-03
  1.7563e+03   1.36e-03
  1.8231e+03   1.25e-03
  1.8925e+03   1.15e-03
  1.9645e+03   1.06e-03
  2.0392e+03   9.71e-04
  2.1168e+03   8.90e-04
  2.1973e+03   8.15e-04
  2.2809e+03   7.47e-04
  2.3677e+03   6.84e-04
  2.4577e+03   6.25e-04
  2.5512e+03   5.71e-04
  2.6483e+03   5.21e-04
  2.7490e+03   4.74e-04
  2.8536e+03   4.32e-04
  2.9622e+03   3.93e-04
  3.0749e+03   3.57e-04
  3.1918e+03   3.24e-04
  3.3133e+03   2.94e-04
  3.4393e+03   2.66e-04
  3.5702e+03   2.41e-04
  3.7060e+03   2.17e-04
  3.8470e+03   1.96e-04
  3.9933e+03   1.77e-04
  4.1452e+03   1.59e-04
  4.3029e+03   1.42e-04
  4.4666e+03   1.28e-04
  4.6366e+03   1.14e-04
  4.8129e+03   1.02e-04
  4.9960e+03   9.10e-05
  5.1861e+03   8.10e-05
  5.3834e+03   7.17e-05
  5.5882e+03   6.36e-05
  5.8008e+03   5.63e-05
  6.0215e+03   4.95e-05
  6.2506e+03   4.35e-05
  6.4883e+03   3.83e-05
  6.7352e+03   3.34e-05
  6.9914e+03   2.91e-05
  7.2574e+03   2.54e-05
  7.5335e+03   2.20e-05
  7.8201e+03   1.90e-05
  8.1176e+03   1.64e-05
  8.4264e+03   1.40e-05
  8.7470e+03   1.20e-05
  9.0797e+03   1.02e-05
  9.4251e+03   8.64e-06
  9.7837e+03   7.26e-06
  1.0156e+04   6.11e-06
  1.0542e+04   5.08e-06
  1.0943e+04   4.19e-06
  1.1360e+04   3.46e-06
  1.1792e+04   2.82e-06
  1.2240e+04   2.27e-06
  1.2706e+04   1.84e-06
  1.3189e+04   1.46e-06
  1.3691e+04   1.14e-06
  1.4212e+04   8.92e-07
  1.4753e+04   6.85e-07
  1.5314e+04   5.13e-07
  1.5897e+04   3.86e-07
  1.6501e+04   2.82e-07
  1.7129e+04   2.01e-07
  1.7781e+04   1.42e-07
  1.8457e+04   9.72e-08
  1.9159e+04   6.40e-08
  1.9888e+04   4.14e-08
  2.0645e+04   2.57e-08
  2.1430e+04   1.51e-08
  2.2245e+04   8.53e-09
  2.3092e+04   4.55e-09
  2.3970e+04   2.24e-09
  2.4882e+04   1.03e-09
  2.5829e+04   4.36e-10
  2.6811e+04   1.63e-10
  2.7831e+04   5.41e-11
  2.8890e+04   1.56e-11
  2.9989e+04   3.68e-12
  3.1130e+04   7.05e-13
  3.2314e+04   1.05e-13
  3.3544e+04   1.12e-14
  3.4820e+04   8.05e-16
  3.6144e+04   3.61e-17
  3.7519e+04   8.79e-19
  3.8947e+04   1.01e-20
  4.0428e+04   4.56e-23
  4.1966e+04   6.16e-26
  4.3563e+04   1.79e-29
  4.5220e+04   7.33e-34
  4.6941e+04   2.30e-39
  4.8726e+04   2.51e-46
  5.0580e+04   8.93e-48
