#  E [GeV]   # per interaction  [GeV^{-1}]
  3.0000e+01   2.16e-02
  3.1033e+01   2.08e-02
  3.2102e+01   2.00e-02
  3.3207e+01   1.93e-02
  3.4350e+01   1.86e-02
  3.5533e+01   1.79e-02
  3.6757e+01   1.72e-02
  3.8022e+01   1.66e-02
  3.9332e+01   1.59e-02
  4.0686e+01   1.53e-02
  4.2087e+01   1.47e-02
  4.3536e+01   1.42e-02
  4.5035e+01   1.36e-02
  4.6586e+01   1.31e-02
  4.8190e+01   1.26e-02
  4.9850e+01   1.21e-02
  5.1566e+01   1.16e-02
  5.3342e+01   1.12e-02
  5.5178e+01   1.07e-02
  5.7078e+01   1.03e-02
  5.9044e+01   9.90e-03
  6.1077e+01   9.51e-03
  6.3180e+01   9.13e-03
  6.5356e+01   8.77e-03
  6.7606e+01   8.42e-03
  6.9934e+01   8.08e-03
  7.2342e+01   7.75e-03
  7.4833e+01   7.44e-03
  7.7410e+01   7.14e-03
  8.0075e+01   6.85e-03
  8.2833e+01   6.57e-03
  8.5685e+01   6.30e-03
  8.8635e+01   6.04e-03
  9.1687e+01   5.80e-03
  9.4844e+01   5.56e-03
  9.8110e+01   5.33e-03
  1.0149e+02   5.11e-03
  1.0498e+02   4.90e-03
  1.0860e+02   4.70e-03
  1.1234e+02   4.50e-03
  1.1621e+02   4.32e-03
  1.2021e+02   4.14e-03
  1.2435e+02   3.97e-03
  1.2863e+02   3.80e-03
  1.3306e+02   3.64e-03
  1.3764e+02   3.49e-03
  1.4238e+02   3.35e-03
  1.4728e+02   3.21e-03
  1.5235e+02   3.07e-03
  1.5760e+02   2.94e-03
  1.6302e+02   2.82e-03
  1.6864e+02   2.70e-03
  1.7445e+02   2.59e-03
  1.8045e+02   2.48e-03
  1.8667e+02   2.38e-03
  1.9309e+02   2.28e-03
  1.9974e+02   2.18e-03
  2.0662e+02   2.09e-03
  2.1373e+02   2.00e-03
  2.2109e+02   1.92e-03
  2.2871e+02   1.83e-03
  2.3658e+02   1.76e-03
  2.4473e+02   1.68e-03
  2.5316e+02   1.61e-03
  2.6187e+02   1.54e-03
  2.7089e+02   1.47e-03
  2.8022e+02   1.41e-03
  2.8987e+02   1.34e-03
  2.9985e+02   1.29e-03
  3.1017e+02   1.23e-03
  3.2085e+02   1.17e-03
  3.3190e+02   1.12e-03
  3.4333e+02   1.07e-03
  3.5515e+02   1.02e-03
  3.6738e+02   9.75e-04
  3.8003e+02   9.30e-04
  3.9312e+02   8.87e-04
  4.0665e+02   8.45e-04
  4.2066e+02   8.06e-04
  4.3514e+02   7.68e-04
  4.5013e+02   7.31e-04
  4.6562e+02   6.96e-04
  4.8166e+02   6.62e-04
  4.9824e+02   6.30e-04
  5.1540e+02   5.99e-04
  5.3315e+02   5.70e-04
  5.5150e+02   5.42e-04
  5.7050e+02   5.15e-04
  5.9014e+02   4.89e-04
  6.1046e+02   4.65e-04
  6.3148e+02   4.41e-04
  6.5322e+02   4.19e-04
  6.7572e+02   3.98e-04
  6.9898e+02   3.78e-04
  7.2305e+02   3.59e-04
  7.4795e+02   3.41e-04
  7.7371e+02   3.24e-04
  8.0035e+02   3.08e-04
  8.2791e+02   2.93e-04
  8.5641e+02   2.78e-04
  8.8590e+02   2.65e-04
  9.1641e+02   2.52e-04
  9.4796e+02   2.40e-04
  9.8061e+02   2.28e-04
  1.0144e+03   2.17e-04
  1.0493e+03   2.07e-04
  1.0854e+03   1.97e-04
  1.1228e+03   1.88e-04
  1.1615e+03   1.80e-04
  1.2015e+03   1.72e-04
  1.2428e+03   1.64e-04
  1.2856e+03   1.57e-04
  1.3299e+03   1.50e-04
  1.3757e+03   1.43e-04
  1.4231e+03   1.37e-04
  1.4721e+03   1.31e-04
  1.5228e+03   1.26e-04
  1.5752e+03   1.20e-04
  1.6294e+03   1.15e-04
  1.6855e+03   1.10e-04
  1.7436e+03   1.06e-04
  1.8036e+03   1.01e-04
  1.8657e+03   9.72e-05
  1.9300e+03   9.32e-05
  1.9964e+03   8.94e-05
  2.0652e+03   8.57e-05
  2.1363e+03   8.21e-05
  2.2098e+03   7.86e-05
  2.2859e+03   7.54e-05
  2.3646e+03   7.21e-05
  2.4461e+03   6.90e-05
  2.5303e+03   6.60e-05
  2.6174e+03   6.31e-05
  2.7075e+03   6.02e-05
  2.8008e+03   5.74e-05
  2.8972e+03   5.48e-05
  2.9970e+03   5.21e-05
  3.1002e+03   4.95e-05
  3.2069e+03   4.71e-05
  3.3173e+03   4.46e-05
  3.4316e+03   4.22e-05
  3.5497e+03   3.99e-05
  3.6720e+03   3.77e-05
  3.7984e+03   3.54e-05
  3.9292e+03   3.33e-05
  4.0645e+03   3.12e-05
  4.2044e+03   2.92e-05
  4.3492e+03   2.72e-05
  4.4990e+03   2.53e-05
  4.6539e+03   2.35e-05
  4.8141e+03   2.17e-05
  4.9799e+03   2.00e-05
  5.1514e+03   1.84e-05
  5.3288e+03   1.68e-05
  5.5123e+03   1.53e-05
  5.7021e+03   1.39e-05
  5.8984e+03   1.25e-05
  6.1015e+03   1.12e-05
  6.3116e+03   1.01e-05
  6.5289e+03   8.95e-06
  6.7538e+03   7.91e-06
  6.9863e+03   6.95e-06
  7.2269e+03   6.07e-06
  7.4757e+03   5.26e-06
  7.7331e+03   4.52e-06
  7.9994e+03   3.86e-06
  8.2749e+03   3.27e-06
  8.5598e+03   2.74e-06
  8.8546e+03   2.28e-06
  9.1594e+03   1.87e-06
  9.4748e+03   1.51e-06
  9.8011e+03   1.21e-06
  1.0139e+04   9.55e-07
  1.0488e+04   7.43e-07
  1.0849e+04   5.69e-07
  1.1222e+04   4.28e-07
  1.1609e+04   3.16e-07
  1.2009e+04   2.28e-07
  1.2422e+04   1.62e-07
  1.2850e+04   1.11e-07
  1.3292e+04   7.52e-08
  1.3750e+04   4.93e-08
  1.4223e+04   3.12e-08
  1.4713e+04   1.91e-08
  1.5220e+04   1.13e-08
  1.5744e+04   6.37e-09
  1.6286e+04   3.41e-09
  1.6847e+04   1.76e-09
  1.7427e+04   8.57e-10
  1.8027e+04   3.88e-10
  1.8648e+04   1.66e-10
  1.9290e+04   6.61e-11
  1.9954e+04   2.39e-11
  2.0641e+04   7.87e-12
  2.1352e+04   2.38e-12
  2.2087e+04   6.34e-13
  2.2848e+04   1.46e-13
  2.3634e+04   2.98e-14
  2.4448e+04   5.12e-15
  2.5290e+04   7.13e-16
