#  E [GeV]   # per interaction  [GeV^{-1}]
  3.0000e+01   6.59e-03
  3.0675e+01   6.39e-03
  3.1366e+01   6.19e-03
  3.2072e+01   5.99e-03
  3.2794e+01   5.81e-03
  3.3533e+01   5.62e-03
  3.4288e+01   5.45e-03
  3.5060e+01   5.27e-03
  3.5849e+01   5.11e-03
  3.6656e+01   4.95e-03
  3.7482e+01   4.79e-03
  3.8326e+01   4.64e-03
  3.9188e+01   4.49e-03
  4.0071e+01   4.35e-03
  4.0973e+01   4.21e-03
  4.1896e+01   4.08e-03
  4.2839e+01   3.95e-03
  4.3803e+01   3.82e-03
  4.4790e+01   3.70e-03
  4.5798e+01   3.59e-03
  4.6829e+01   3.47e-03
  4.7884e+01   3.36e-03
  4.8962e+01   3.26e-03
  5.0064e+01   3.15e-03
  5.1191e+01   3.05e-03
  5.2344e+01   2.96e-03
  5.3522e+01   2.86e-03
  5.4727e+01   2.77e-03
  5.5960e+01   2.68e-03
  5.7219e+01   2.60e-03
  5.8508e+01   2.51e-03
  5.9825e+01   2.44e-03
  6.1172e+01   2.36e-03
  6.2549e+01   2.28e-03
  6.3958e+01   2.21e-03
  6.5398e+01   2.14e-03
  6.6870e+01   2.07e-03
  6.8376e+01   2.01e-03
  6.9915e+01   1.94e-03
  7.1489e+01   1.88e-03
  7.3099e+01   1.82e-03
  7.4745e+01   1.76e-03
  7.6428e+01   1.71e-03
  7.8148e+01   1.65e-03
  7.9908e+01   1.60e-03
  8.1707e+01   1.55e-03
  8.3547e+01   1.50e-03
  8.5428e+01   1.45e-03
  8.7351e+01   1.41e-03
  8.9318e+01   1.36e-03
  9.1329e+01   1.32e-03
  9.3385e+01   1.28e-03
  9.5488e+01   1.24e-03
  9.7638e+01   1.20e-03
  9.9836e+01   1.16e-03
  1.0208e+02   1.12e-03
  1.0438e+02   1.09e-03
  1.0673e+02   1.06e-03
  1.0914e+02   1.02e-03
  1.1159e+02   9.90e-04
  1.1411e+02   9.58e-04
  1.1667e+02   9.28e-04
  1.1930e+02   8.99e-04
  1.2199e+02   8.71e-04
  1.2473e+02   8.43e-04
  1.2754e+02   8.17e-04
  1.3041e+02   7.91e-04
  1.3335e+02   7.66e-04
  1.3635e+02   7.42e-04
  1.3942e+02   7.19e-04
  1.4256e+02   6.96e-04
  1.4577e+02   6.74e-04
  1.4905e+02   6.53e-04
  1.5241e+02   6.32e-04
  1.5584e+02   6.12e-04
  1.5935e+02   5.93e-04
  1.6294e+02   5.74e-04
  1.6661e+02   5.56e-04
  1.7036e+02   5.38e-04
  1.7419e+02   5.21e-04
  1.7812e+02   5.04e-04
  1.8213e+02   4.88e-04
  1.8623e+02   4.72e-04
  1.9042e+02   4.57e-04
  1.9471e+02   4.42e-04
  1.9909e+02   4.28e-04
  2.0357e+02   4.14e-04
  2.0816e+02   4.01e-04
  2.1284e+02   3.88e-04
  2.1763e+02   3.75e-04
  2.2253e+02   3.62e-04
  2.2755e+02   3.50e-04
  2.3267e+02   3.39e-04
  2.3791e+02   3.27e-04
  2.4326e+02   3.16e-04
  2.4874e+02   3.06e-04
  2.5434e+02   2.95e-04
  2.6007e+02   2.85e-04
  2.6592e+02   2.75e-04
  2.7191e+02   2.66e-04
  2.7803e+02   2.57e-04
  2.8429e+02   2.48e-04
  2.9069e+02   2.39e-04
  2.9724e+02   2.31e-04
  3.0393e+02   2.22e-04
  3.1077e+02   2.14e-04
  3.1777e+02   2.07e-04
  3.2493e+02   1.99e-04
  3.3224e+02   1.92e-04
  3.3972e+02   1.85e-04
  3.4737e+02   1.78e-04
  3.5519e+02   1.71e-04
  3.6319e+02   1.65e-04
  3.7137e+02   1.58e-04
  3.7973e+02   1.52e-04
  3.8828e+02   1.47e-04
  3.9702e+02   1.41e-04
  4.0596e+02   1.35e-04
  4.1510e+02   1.30e-04
  4.2444e+02   1.25e-04
  4.3400e+02   1.20e-04
  4.4377e+02   1.15e-04
  4.5376e+02   1.10e-04
  4.6398e+02   1.06e-04
  4.7443e+02   1.02e-04
  4.8511e+02   9.73e-05
  4.9603e+02   9.32e-05
  5.0720e+02   8.93e-05
  5.1862e+02   8.55e-05
  5.3030e+02   8.18e-05
  5.4224e+02   7.83e-05
  5.5444e+02   7.49e-05
  5.6693e+02   7.16e-05
  5.7969e+02   6.85e-05
  5.9274e+02   6.54e-05
  6.0609e+02   6.25e-05
  6.1974e+02   5.97e-05
  6.3369e+02   5.71e-05
  6.4796e+02   5.45e-05
  6.6255e+02   5.21e-05
  6.7746e+02   4.97e-05
  6.9272e+02   4.74e-05
  7.0831e+02   4.53e-05
  7.2426e+02   4.32e-05
  7.4057e+02   4.12e-05
  7.5724e+02   3.93e-05
  7.7429e+02   3.75e-05
  7.9172e+02   3.58e-05
  8.0955e+02   3.42e-05
  8.2778e+02   3.26e-05
  8.4641e+02   3.11e-05
  8.6547e+02   2.97e-05
  8.8496e+02   2.83e-05
  9.0488e+02   2.70e-05
  9.2526e+02   2.57e-05
  9.4609e+02   2.45e-05
  9.6739e+02   2.34e-05
  9.8917e+02   2.23e-05
  1.0114e+03   2.13e-05
  1.0342e+03   2.03e-05
  1.0575e+03   1.94e-05
  1.0813e+03   1.85e-05
  1.1057e+03   1.76e-05
  1.1305e+03   1.68e-05
  1.1560e+03   1.61e-05
  1.1820e+03   1.53e-05
  1.2086e+03   1.47e-05
  1.2359e+03   1.40e-05
  1.2637e+03   1.34e-05
  1.2921e+03   1.28e-05
  1.3212e+03   1.22e-05
  1.3510e+03   1.17e-05
  1.3814e+03   1.11e-05
  1.4125e+03   1.07e-05
  1.4443e+03   1.02e-05
  1.4768e+03   9.74e-06
  1.5101e+03   9.31e-06
  1.5441e+03   8.91e-06
  1.5788e+03   8.52e-06
  1.6144e+03   8.14e-06
  1.6507e+03   7.79e-06
  1.6879e+03   7.45e-06
  1.7259e+03   7.13e-06
  1.7648e+03   6.82e-06
  1.8045e+03   6.53e-06
  1.8451e+03   6.24e-06
  1.8867e+03   5.97e-06
  1.9291e+03   5.71e-06
  1.9726e+03   5.46e-06
  2.0170e+03   5.22e-06
  2.0624e+03   4.99e-06
  2.1088e+03   4.77e-06
  2.1563e+03   4.56e-06
  2.2049e+03   4.35e-06
  2.2545e+03   4.16e-06
  2.3053e+03   3.98e-06
  2.3572e+03   3.82e-06
  2.4102e+03   3.67e-06
  2.4645e+03   3.52e-06
  2.5200e+03   3.38e-06
