#  E [MeV]   Flux [# cm^{-2} s^{-1}  MeV^{-1}]
  3.0000e+04   2.05e-20
  3.0854e+04   1.99e-20
  3.1733e+04   1.92e-20
  3.2636e+04   1.86e-20
  3.3566e+04   1.80e-20
  3.4521e+04   1.75e-20
  3.5504e+04   1.69e-20
  3.6515e+04   1.64e-20
  3.7555e+04   1.59e-20
  3.8625e+04   1.54e-20
  3.9724e+04   1.49e-20
  4.0855e+04   1.45e-20
  4.2019e+04   1.40e-20
  4.3215e+04   1.36e-20
  4.4446e+04   1.32e-20
  4.5711e+04   1.28e-20
  4.7013e+04   1.24e-20
  4.8352e+04   1.20e-20
  4.9728e+04   1.17e-20
  5.1144e+04   1.13e-20
  5.2601e+04   1.10e-20
  5.4099e+04   1.07e-20
  5.5639e+04   1.03e-20
  5.7223e+04   1.00e-20
  5.8853e+04   9.75e-21
  6.0528e+04   9.47e-21
  6.2252e+04   9.20e-21
  6.4025e+04   8.93e-21
  6.5848e+04   8.68e-21
  6.7723e+04   8.44e-21
  6.9651e+04   8.20e-21
  7.1634e+04   7.98e-21
  7.3674e+04   7.76e-21
  7.5772e+04   7.55e-21
  7.7929e+04   7.34e-21
  8.0148e+04   7.15e-21
  8.2431e+04   6.96e-21
  8.4778e+04   6.77e-21
  8.7192e+04   6.60e-21
  8.9674e+04   6.42e-21
  9.2228e+04   6.26e-21
  9.4854e+04   6.10e-21
  9.7555e+04   5.95e-21
  1.0033e+05   5.80e-21
  1.0319e+05   5.66e-21
  1.0613e+05   5.52e-21
  1.0915e+05   5.39e-21
  1.1226e+05   5.26e-21
  1.1545e+05   5.14e-21
  1.1874e+05   5.02e-21
  1.2212e+05   4.90e-21
  1.2560e+05   4.79e-21
  1.2918e+05   4.68e-21
  1.3286e+05   4.58e-21
  1.3664e+05   4.47e-21
  1.4053e+05   4.37e-21
  1.4453e+05   4.28e-21
  1.4865e+05   4.19e-21
  1.5288e+05   4.10e-21
  1.5723e+05   4.01e-21
  1.6171e+05   3.93e-21
  1.6631e+05   3.85e-21
  1.7105e+05   3.77e-21
  1.7592e+05   3.69e-21
  1.8093e+05   3.61e-21
  1.8608e+05   3.54e-21
  1.9138e+05   3.47e-21
  1.9683e+05   3.40e-21
  2.0243e+05   3.33e-21
  2.0820e+05   3.26e-21
  2.1413e+05   3.20e-21
  2.2022e+05   3.14e-21
  2.2649e+05   3.08e-21
  2.3294e+05   3.02e-21
  2.3958e+05   2.96e-21
  2.4640e+05   2.90e-21
  2.5341e+05   2.84e-21
  2.6063e+05   2.79e-21
  2.6805e+05   2.73e-21
  2.7568e+05   2.68e-21
  2.8353e+05   2.63e-21
  2.9161e+05   2.58e-21
  2.9991e+05   2.53e-21
  3.0845e+05   2.48e-21
  3.1723e+05   2.43e-21
  3.2627e+05   2.38e-21
  3.3556e+05   2.34e-21
  3.4511e+05   2.29e-21
  3.5494e+05   2.25e-21
  3.6504e+05   2.20e-21
  3.7544e+05   2.16e-21
  3.8613e+05   2.12e-21
  3.9712e+05   2.07e-21
  4.0843e+05   2.03e-21
  4.2006e+05   1.99e-21
  4.3202e+05   1.95e-21
  4.4432e+05   1.91e-21
  4.5698e+05   1.87e-21
  4.6999e+05   1.83e-21
  4.8337e+05   1.80e-21
  4.9713e+05   1.76e-21
  5.1129e+05   1.72e-21
  5.2585e+05   1.68e-21
  5.4082e+05   1.65e-21
  5.5622e+05   1.61e-21
  5.7206e+05   1.57e-21
  5.8835e+05   1.54e-21
  6.0510e+05   1.50e-21
  6.2233e+05   1.47e-21
  6.4005e+05   1.43e-21
  6.5828e+05   1.40e-21
  6.7702e+05   1.37e-21
  6.9630e+05   1.33e-21
  7.1613e+05   1.30e-21
  7.3652e+05   1.27e-21
  7.5749e+05   1.24e-21
  7.7906e+05   1.21e-21
  8.0124e+05   1.18e-21
  8.2406e+05   1.15e-21
  8.4752e+05   1.12e-21
  8.7165e+05   1.09e-21
  8.9647e+05   1.06e-21
  9.2200e+05   1.03e-21
  9.4825e+05   9.99e-22
  9.7526e+05   9.71e-22
  1.0030e+06   9.43e-22
  1.0316e+06   9.15e-22
  1.0610e+06   8.88e-22
  1.0912e+06   8.62e-22
  1.1222e+06   8.36e-22
  1.1542e+06   8.09e-22
  1.1871e+06   7.84e-22
  1.2209e+06   7.59e-22
  1.2556e+06   7.35e-22
  1.2914e+06   7.10e-22
  1.3281e+06   6.86e-22
  1.3660e+06   6.63e-22
  1.4049e+06   6.41e-22
  1.4449e+06   6.18e-22
  1.4860e+06   5.95e-22
  1.5283e+06   5.74e-22
  1.5718e+06   5.53e-22
  1.6166e+06   5.31e-22
  1.6626e+06   5.11e-22
  1.7100e+06   4.90e-22
  1.7587e+06   4.71e-22
  1.8087e+06   4.51e-22
  1.8602e+06   4.32e-22
  1.9132e+06   4.14e-22
  1.9677e+06   3.96e-22
  2.0237e+06   3.78e-22
  2.0813e+06   3.61e-22
  2.1406e+06   3.44e-22
  2.2016e+06   3.28e-22
  2.2642e+06   3.12e-22
  2.3287e+06   2.97e-22
  2.3950e+06   2.82e-22
  2.4632e+06   2.67e-22
  2.5334e+06   2.53e-22
  2.6055e+06   2.39e-22
  2.6797e+06   2.26e-22
  2.7560e+06   2.14e-22
  2.8345e+06   2.02e-22
  2.9152e+06   1.90e-22
  2.9982e+06   1.78e-22
  3.0836e+06   1.68e-22
  3.1714e+06   1.57e-22
  3.2617e+06   1.47e-22
  3.3545e+06   1.37e-22
  3.4501e+06   1.27e-22
  3.5483e+06   1.18e-22
  3.6493e+06   1.10e-22
  3.7532e+06   1.02e-22
  3.8601e+06   9.41e-23
  3.9700e+06   8.67e-23
  4.0831e+06   7.99e-23
  4.1993e+06   7.34e-23
  4.3189e+06   6.72e-23
  4.4419e+06   6.13e-23
  4.5684e+06   5.60e-23
  4.6985e+06   5.11e-23
  4.8322e+06   4.63e-23
  4.9698e+06   4.18e-23
  5.1114e+06   3.79e-23
  5.2569e+06   3.42e-23
  5.4066e+06   3.06e-23
  5.5605e+06   2.73e-23
  5.7189e+06   2.45e-23
  5.8817e+06   2.19e-23
  6.0492e+06   1.95e-23
  6.2214e+06   1.72e-23
  6.3986e+06   1.53e-23
  6.5808e+06   1.36e-23
  6.7682e+06   1.21e-23
  6.9609e+06   1.06e-23
  7.1591e+06   9.44e-24
  7.3630e+06   8.50e-24
  7.5726e+06   7.60e-24
  7.7882e+06   6.75e-24
  8.0100e+06   6.12e-24
