#  E [GeV]   # per interaction  [GeV^{-1}]
  3.0000e+01   2.53e-02
  3.1123e+01   2.44e-02
  3.2288e+01   2.34e-02
  3.3497e+01   2.25e-02
  3.4751e+01   2.16e-02
  3.6051e+01   2.08e-02
  3.7401e+01   2.00e-02
  3.8801e+01   1.92e-02
  4.0253e+01   1.84e-02
  4.1760e+01   1.77e-02
  4.3324e+01   1.70e-02
  4.4945e+01   1.63e-02
  4.6628e+01   1.56e-02
  4.8373e+01   1.50e-02
  5.0184e+01   1.44e-02
  5.2063e+01   1.38e-02
  5.4011e+01   1.32e-02
  5.6033e+01   1.27e-02
  5.8131e+01   1.21e-02
  6.0307e+01   1.16e-02
  6.2564e+01   1.11e-02
  6.4906e+01   1.06e-02
  6.7336e+01   1.02e-02
  6.9857e+01   9.74e-03
  7.2472e+01   9.31e-03
  7.5184e+01   8.90e-03
  7.7999e+01   8.51e-03
  8.0919e+01   8.13e-03
  8.3948e+01   7.76e-03
  8.7090e+01   7.41e-03
  9.0350e+01   7.08e-03
  9.3732e+01   6.75e-03
  9.7241e+01   6.44e-03
  1.0088e+02   6.14e-03
  1.0466e+02   5.86e-03
  1.0858e+02   5.58e-03
  1.1264e+02   5.31e-03
  1.1686e+02   5.06e-03
  1.2123e+02   4.82e-03
  1.2577e+02   4.58e-03
  1.3048e+02   4.36e-03
  1.3536e+02   4.14e-03
  1.4043e+02   3.94e-03
  1.4568e+02   3.74e-03
  1.5114e+02   3.55e-03
  1.5680e+02   3.37e-03
  1.6266e+02   3.20e-03
  1.6875e+02   3.03e-03
  1.7507e+02   2.87e-03
  1.8162e+02   2.72e-03
  1.8842e+02   2.57e-03
  1.9548e+02   2.43e-03
  2.0279e+02   2.30e-03
  2.1039e+02   2.17e-03
  2.1826e+02   2.05e-03
  2.2643e+02   1.93e-03
  2.3491e+02   1.82e-03
  2.4370e+02   1.72e-03
  2.5282e+02   1.62e-03
  2.6229e+02   1.52e-03
  2.7211e+02   1.43e-03
  2.8229e+02   1.34e-03
  2.9286e+02   1.26e-03
  3.0382e+02   1.18e-03
  3.1519e+02   1.11e-03
  3.2699e+02   1.04e-03
  3.3923e+02   9.70e-04
  3.5193e+02   9.07e-04
  3.6511e+02   8.46e-04
  3.7877e+02   7.90e-04
  3.9295e+02   7.36e-04
  4.0766e+02   6.85e-04
  4.2292e+02   6.38e-04
  4.3875e+02   5.93e-04
  4.5518e+02   5.51e-04
  4.7222e+02   5.11e-04
  4.8989e+02   4.74e-04
  5.0823e+02   4.39e-04
  5.2726e+02   4.07e-04
  5.4699e+02   3.77e-04
  5.6747e+02   3.48e-04
  5.8871e+02   3.22e-04
  6.1075e+02   2.98e-04
  6.3361e+02   2.75e-04
  6.5733e+02   2.53e-04
  6.8194e+02   2.34e-04
  7.0746e+02   2.16e-04
  7.3395e+02   1.99e-04
  7.6142e+02   1.84e-04
  7.8992e+02   1.69e-04
  8.1949e+02   1.56e-04
  8.5017e+02   1.44e-04
  8.8199e+02   1.33e-04
  9.1501e+02   1.23e-04
  9.4926e+02   1.13e-04
  9.8479e+02   1.05e-04
  1.0217e+03   9.67e-05
  1.0599e+03   8.93e-05
  1.0996e+03   8.26e-05
  1.1407e+03   7.64e-05
  1.1834e+03   7.07e-05
  1.2277e+03   6.55e-05
  1.2737e+03   6.08e-05
  1.3214e+03   5.63e-05
  1.3708e+03   5.23e-05
  1.4222e+03   4.86e-05
  1.4754e+03   4.51e-05
  1.5306e+03   4.20e-05
  1.5879e+03   3.91e-05
  1.6474e+03   3.64e-05
  1.7090e+03   3.39e-05
  1.7730e+03   3.16e-05
  1.8394e+03   2.95e-05
  1.9082e+03   2.76e-05
  1.9797e+03   2.57e-05
  2.0538e+03   2.40e-05
  2.1306e+03   2.25e-05
  2.2104e+03   2.10e-05
  2.2931e+03   1.97e-05
  2.3790e+03   1.84e-05
  2.4680e+03   1.73e-05
  2.5604e+03   1.62e-05
  2.6563e+03   1.51e-05
  2.7557e+03   1.42e-05
  2.8589e+03   1.33e-05
  2.9659e+03   1.24e-05
  3.0769e+03   1.16e-05
  3.1921e+03   1.09e-05
  3.3116e+03   1.02e-05
  3.4355e+03   9.53e-06
  3.5641e+03   8.91e-06
  3.6976e+03   8.32e-06
  3.8360e+03   7.77e-06
  3.9796e+03   7.24e-06
  4.1285e+03   6.75e-06
  4.2831e+03   6.28e-06
  4.4434e+03   5.84e-06
  4.6097e+03   5.41e-06
  4.7823e+03   5.02e-06
  4.9613e+03   4.64e-06
  5.1470e+03   4.29e-06
  5.3397e+03   3.95e-06
  5.5396e+03   3.63e-06
  5.7470e+03   3.33e-06
  5.9621e+03   3.05e-06
  6.1853e+03   2.78e-06
  6.4168e+03   2.52e-06
  6.6570e+03   2.28e-06
  6.9062e+03   2.06e-06
  7.1647e+03   1.85e-06
  7.4329e+03   1.65e-06
  7.7112e+03   1.47e-06
  7.9998e+03   1.30e-06
  8.2993e+03   1.14e-06
  8.6100e+03   9.94e-07
  8.9323e+03   8.61e-07
  9.2666e+03   7.40e-07
  9.6135e+03   6.30e-07
  9.9734e+03   5.31e-07
  1.0347e+04   4.43e-07
  1.0734e+04   3.65e-07
  1.1136e+04   2.97e-07
  1.1553e+04   2.38e-07
  1.1985e+04   1.88e-07
  1.2434e+04   1.46e-07
  1.2899e+04   1.11e-07
  1.3382e+04   8.24e-08
  1.3883e+04   5.98e-08
  1.4403e+04   4.23e-08
  1.4942e+04   2.91e-08
  1.5501e+04   1.93e-08
  1.6081e+04   1.23e-08
  1.6683e+04   7.55e-09
  1.7308e+04   4.41e-09
  1.7956e+04   2.44e-09
  1.8628e+04   1.27e-09
  1.9325e+04   6.19e-10
  2.0049e+04   2.78e-10
  2.0799e+04   1.14e-10
  2.1578e+04   4.23e-11
  2.2386e+04   1.39e-11
  2.3224e+04   4.00e-12
  2.4093e+04   9.80e-13
  2.4995e+04   2.00e-13
  2.5930e+04   3.29e-14
  2.6901e+04   4.22e-15
  2.7908e+04   4.03e-16
  2.8953e+04   2.72e-17
  3.0037e+04   1.22e-18
  3.1161e+04   3.34e-20
  3.2327e+04   5.11e-22
  3.3537e+04   3.86e-24
  3.4793e+04   1.25e-26
  3.6095e+04   1.43e-29
  3.7446e+04   4.67e-33
  3.8848e+04   3.23e-37
  4.0302e+04   3.29e-42
  4.1811e+04   1.09e-46
  4.3376e+04   1.03e-46
  4.5000e+04   9.80e-47
