#  E [MeV]   Flux [# cm^{-2} s^{-1}  MeV^{-1}]
  3.0000e+04   1.57e-26
  3.1141e+04   1.51e-26
  3.2326e+04   1.46e-26
  3.3556e+04   1.40e-26
  3.4832e+04   1.35e-26
  3.6157e+04   1.30e-26
  3.7533e+04   1.25e-26
  3.8961e+04   1.20e-26
  4.0443e+04   1.15e-26
  4.1982e+04   1.11e-26
  4.3579e+04   1.06e-26
  4.5237e+04   1.02e-26
  4.6958e+04   9.80e-27
  4.8744e+04   9.41e-27
  5.0598e+04   9.03e-27
  5.2523e+04   8.66e-27
  5.4521e+04   8.31e-27
  5.6596e+04   7.97e-27
  5.8749e+04   7.64e-27
  6.0984e+04   7.33e-27
  6.3304e+04   7.02e-27
  6.5712e+04   6.73e-27
  6.8212e+04   6.45e-27
  7.0807e+04   6.18e-27
  7.3500e+04   5.92e-27
  7.6297e+04   5.66e-27
  7.9199e+04   5.42e-27
  8.2212e+04   5.19e-27
  8.5340e+04   4.97e-27
  8.8586e+04   4.75e-27
  9.1956e+04   4.54e-27
  9.5455e+04   4.34e-27
  9.9086e+04   4.15e-27
  1.0286e+05   3.97e-27
  1.0677e+05   3.79e-27
  1.1083e+05   3.62e-27
  1.1505e+05   3.46e-27
  1.1942e+05   3.30e-27
  1.2397e+05   3.15e-27
  1.2868e+05   3.01e-27
  1.3358e+05   2.87e-27
  1.3866e+05   2.74e-27
  1.4394e+05   2.61e-27
  1.4941e+05   2.49e-27
  1.5509e+05   2.37e-27
  1.6100e+05   2.26e-27
  1.6712e+05   2.15e-27
  1.7348e+05   2.05e-27
  1.8008e+05   1.95e-27
  1.8693e+05   1.86e-27
  1.9404e+05   1.77e-27
  2.0142e+05   1.68e-27
  2.0908e+05   1.60e-27
  2.1704e+05   1.52e-27
  2.2529e+05   1.45e-27
  2.3387e+05   1.37e-27
  2.4276e+05   1.30e-27
  2.5200e+05   1.24e-27
  2.6158e+05   1.17e-27
  2.7154e+05   1.11e-27
  2.8187e+05   1.06e-27
  2.9259e+05   1.00e-27
  3.0372e+05   9.50e-28
  3.1527e+05   9.01e-28
  3.2727e+05   8.53e-28
  3.3972e+05   8.08e-28
  3.5264e+05   7.65e-28
  3.6606e+05   7.24e-28
  3.7998e+05   6.85e-28
  3.9444e+05   6.49e-28
  4.0945e+05   6.13e-28
  4.2502e+05   5.80e-28
  4.4119e+05   5.48e-28
  4.5798e+05   5.18e-28
  4.7540e+05   4.90e-28
  4.9348e+05   4.63e-28
  5.1226e+05   4.37e-28
  5.3175e+05   4.13e-28
  5.5198e+05   3.90e-28
  5.7297e+05   3.69e-28
  5.9477e+05   3.48e-28
  6.1740e+05   3.29e-28
  6.4089e+05   3.11e-28
  6.6527e+05   2.94e-28
  6.9058e+05   2.78e-28
  7.1685e+05   2.63e-28
  7.4412e+05   2.49e-28
  7.7243e+05   2.36e-28
  8.0181e+05   2.24e-28
  8.3232e+05   2.12e-28
  8.6398e+05   2.01e-28
  8.9685e+05   1.91e-28
  9.3097e+05   1.81e-28
  9.6638e+05   1.72e-28
  1.0031e+06   1.64e-28
  1.0413e+06   1.56e-28
  1.0809e+06   1.48e-28
  1.1220e+06   1.41e-28
  1.1647e+06   1.35e-28
  1.2090e+06   1.28e-28
  1.2550e+06   1.23e-28
  1.3028e+06   1.17e-28
  1.3523e+06   1.12e-28
  1.4038e+06   1.07e-28
  1.4572e+06   1.03e-28
  1.5126e+06   9.86e-29
  1.5702e+06   9.46e-29
  1.6299e+06   9.08e-29
  1.6919e+06   8.72e-29
  1.7563e+06   8.38e-29
  1.8231e+06   8.06e-29
  1.8925e+06   7.75e-29
  1.9645e+06   7.46e-29
  2.0392e+06   7.18e-29
  2.1168e+06   6.91e-29
  2.1973e+06   6.66e-29
  2.2809e+06   6.41e-29
  2.3677e+06   6.18e-29
  2.4577e+06   5.95e-29
  2.5512e+06   5.73e-29
  2.6483e+06   5.51e-29
  2.7490e+06   5.31e-29
  2.8536e+06   5.10e-29
  2.9622e+06   4.91e-29
  3.0749e+06   4.71e-29
  3.1918e+06   4.53e-29
  3.3133e+06   4.34e-29
  3.4393e+06   4.16e-29
  3.5702e+06   3.98e-29
  3.7060e+06   3.81e-29
  3.8470e+06   3.64e-29
  3.9933e+06   3.47e-29
  4.1452e+06   3.31e-29
  4.3029e+06   3.15e-29
  4.4666e+06   2.99e-29
  4.6366e+06   2.83e-29
  4.8129e+06   2.68e-29
  4.9960e+06   2.52e-29
  5.1861e+06   2.38e-29
  5.3834e+06   2.23e-29
  5.5882e+06   2.09e-29
  5.8008e+06   1.95e-29
  6.0215e+06   1.82e-29
  6.2506e+06   1.68e-29
  6.4883e+06   1.56e-29
  6.7352e+06   1.43e-29
  6.9914e+06   1.31e-29
  7.2574e+06   1.20e-29
  7.5335e+06   1.09e-29
  7.8201e+06   9.81e-30
  8.1176e+06   8.81e-30
  8.4264e+06   7.86e-30
  8.7470e+06   6.96e-30
  9.0797e+06   6.13e-30
  9.4251e+06   5.36e-30
  9.7837e+06   4.63e-30
  1.0156e+07   3.97e-30
  1.0542e+07   3.37e-30
  1.0943e+07   2.82e-30
  1.1360e+07   2.34e-30
  1.1792e+07   1.91e-30
  1.2240e+07   1.54e-30
  1.2706e+07   1.22e-30
  1.3189e+07   9.51e-31
  1.3691e+07   7.25e-31
  1.4212e+07   5.41e-31
  1.4753e+07   3.94e-31
  1.5314e+07   2.79e-31
  1.5897e+07   1.92e-31
  1.6501e+07   1.27e-31
  1.7129e+07   8.14e-32
  1.7781e+07   4.98e-32
  1.8457e+07   2.90e-32
  1.9159e+07   1.59e-32
  1.9888e+07   8.22e-33
  2.0645e+07   3.94e-33
  2.1430e+07   1.74e-33
  2.2245e+07   6.97e-34
  2.3092e+07   2.50e-34
  2.3970e+07   7.89e-35
  2.4882e+07   2.15e-35
  2.5829e+07   4.90e-36
  2.6811e+07   9.12e-37
  2.7831e+07   1.34e-37
  2.8890e+07   1.47e-38
  2.9989e+07   1.15e-39
  3.1130e+07   6.02e-41
  3.2314e+07   1.92e-42
  3.3544e+07   3.37e-44
  3.4820e+07   2.92e-46
  3.6144e+07   1.04e-48
  3.7519e+07   1.23e-51
  3.8947e+07   3.88e-55
  4.0428e+07   2.26e-59
  4.1966e+07   1.56e-64
  4.3563e+07   7.88e-71
  4.5220e+07   6.92e-71
  4.6941e+07   6.02e-71
  4.8726e+07   5.47e-71
  5.0580e+07   5.02e-71
