#  E [MeV]   Flux [# cm^{-2} s^{-1}  MeV^{-1}]
  3.0000e+04   7.32e-25
  3.1051e+04   7.01e-25
  3.2139e+04   6.71e-25
  3.3266e+04   6.43e-25
  3.4432e+04   6.15e-25
  3.5638e+04   5.89e-25
  3.6887e+04   5.63e-25
  3.8180e+04   5.39e-25
  3.9518e+04   5.15e-25
  4.0903e+04   4.93e-25
  4.2336e+04   4.71e-25
  4.3820e+04   4.51e-25
  4.5355e+04   4.31e-25
  4.6945e+04   4.12e-25
  4.8590e+04   3.94e-25
  5.0293e+04   3.76e-25
  5.2055e+04   3.59e-25
  5.3879e+04   3.43e-25
  5.5767e+04   3.28e-25
  5.7722e+04   3.13e-25
  5.9745e+04   2.99e-25
  6.1838e+04   2.86e-25
  6.4005e+04   2.73e-25
  6.6248e+04   2.60e-25
  6.8570e+04   2.48e-25
  7.0973e+04   2.37e-25
  7.3460e+04   2.26e-25
  7.6034e+04   2.16e-25
  7.8699e+04   2.06e-25
  8.1457e+04   1.96e-25
  8.4311e+04   1.87e-25
  8.7266e+04   1.78e-25
  9.0324e+04   1.70e-25
  9.3490e+04   1.62e-25
  9.6766e+04   1.54e-25
  1.0016e+05   1.47e-25
  1.0367e+05   1.40e-25
  1.0730e+05   1.33e-25
  1.1106e+05   1.27e-25
  1.1495e+05   1.21e-25
  1.1898e+05   1.15e-25
  1.2315e+05   1.09e-25
  1.2747e+05   1.04e-25
  1.3193e+05   9.89e-26
  1.3656e+05   9.40e-26
  1.4134e+05   8.94e-26
  1.4629e+05   8.49e-26
  1.5142e+05   8.06e-26
  1.5673e+05   7.66e-26
  1.6222e+05   7.27e-26
  1.6790e+05   6.89e-26
  1.7379e+05   6.53e-26
  1.7988e+05   6.19e-26
  1.8618e+05   5.87e-26
  1.9271e+05   5.55e-26
  1.9946e+05   5.25e-26
  2.0645e+05   4.97e-26
  2.1369e+05   4.70e-26
  2.2117e+05   4.44e-26
  2.2892e+05   4.19e-26
  2.3695e+05   3.95e-26
  2.4525e+05   3.72e-26
  2.5385e+05   3.50e-26
  2.6274e+05   3.30e-26
  2.7195e+05   3.10e-26
  2.8148e+05   2.91e-26
  2.9134e+05   2.73e-26
  3.0155e+05   2.56e-26
  3.1212e+05   2.40e-26
  3.2306e+05   2.24e-26
  3.3438e+05   2.10e-26
  3.4610e+05   1.96e-26
  3.5823e+05   1.82e-26
  3.7078e+05   1.70e-26
  3.8377e+05   1.58e-26
  3.9722e+05   1.47e-26
  4.1114e+05   1.36e-26
  4.2555e+05   1.26e-26
  4.4046e+05   1.17e-26
  4.5590e+05   1.09e-26
  4.7188e+05   1.01e-26
  4.8841e+05   9.31e-27
  5.0553e+05   8.61e-27
  5.2324e+05   7.95e-27
  5.4158e+05   7.34e-27
  5.6056e+05   6.77e-27
  5.8020e+05   6.23e-27
  6.0054e+05   5.74e-27
  6.2158e+05   5.28e-27
  6.4337e+05   4.86e-27
  6.6591e+05   4.46e-27
  6.8925e+05   4.10e-27
  7.1340e+05   3.76e-27
  7.3840e+05   3.44e-27
  7.6428e+05   3.15e-27
  7.9106e+05   2.89e-27
  8.1878e+05   2.64e-27
  8.4748e+05   2.41e-27
  8.7718e+05   2.21e-27
  9.0792e+05   2.02e-27
  9.3973e+05   1.84e-27
  9.7267e+05   1.68e-27
  1.0068e+06   1.53e-27
  1.0420e+06   1.40e-27
  1.0785e+06   1.28e-27
  1.1163e+06   1.17e-27
  1.1555e+06   1.06e-27
  1.1960e+06   9.68e-28
  1.2379e+06   8.82e-28
  1.2813e+06   8.03e-28
  1.3262e+06   7.31e-28
  1.3726e+06   6.65e-28
  1.4207e+06   6.05e-28
  1.4705e+06   5.49e-28
  1.5220e+06   5.00e-28
  1.5754e+06   4.54e-28
  1.6306e+06   4.12e-28
  1.6877e+06   3.74e-28
  1.7469e+06   3.39e-28
  1.8081e+06   3.07e-28
  1.8715e+06   2.78e-28
  1.9370e+06   2.52e-28
  2.0049e+06   2.28e-28
  2.0752e+06   2.05e-28
  2.1479e+06   1.85e-28
  2.2232e+06   1.67e-28
  2.3011e+06   1.50e-28
  2.3817e+06   1.35e-28
  2.4652e+06   1.22e-28
  2.5516e+06   1.09e-28
  2.6410e+06   9.76e-29
  2.7336e+06   8.75e-29
  2.8294e+06   7.80e-29
  2.9285e+06   6.93e-29
  3.0311e+06   6.18e-29
  3.1374e+06   5.49e-29
  3.2473e+06   4.85e-29
  3.3611e+06   4.28e-29
  3.4789e+06   3.79e-29
  3.6008e+06   3.33e-29
  3.7270e+06   2.91e-29
  3.8576e+06   2.57e-29
  3.9928e+06   2.24e-29
  4.1327e+06   1.94e-29
  4.2775e+06   1.70e-29
  4.4274e+06   1.47e-29
  4.5826e+06   1.27e-29
  4.7432e+06   1.09e-29
  4.9094e+06   9.42e-30
  5.0815e+06   8.05e-30
  5.2595e+06   6.82e-30
  5.4438e+06   5.84e-30
  5.6346e+06   4.94e-30
  5.8321e+06   4.12e-30
  6.0365e+06   3.48e-30
  6.2480e+06   2.92e-30
  6.4670e+06   2.41e-30
  6.6936e+06   1.99e-30
  6.9282e+06   1.65e-30
  7.1709e+06   1.35e-30
  7.4222e+06   1.09e-30
  7.6823e+06   8.93e-31
  7.9516e+06   7.20e-31
  8.2302e+06   5.70e-31
  8.5186e+06   4.56e-31
  8.8172e+06   3.62e-31
  9.1262e+06   2.81e-31
  9.4460e+06   2.18e-31
  9.7770e+06   1.70e-31
  1.0120e+07   1.29e-31
  1.0474e+07   9.63e-32
  1.0841e+07   7.30e-32
  1.1221e+07   5.42e-32
  1.1614e+07   3.91e-32
  1.2022e+07   2.84e-32
  1.2443e+07   2.04e-32
  1.2879e+07   1.42e-32
  1.3330e+07   9.79e-33
  1.3797e+07   6.72e-33
  1.4281e+07   4.46e-33
  1.4781e+07   2.86e-33
  1.5299e+07   1.84e-33
  1.5835e+07   1.14e-33
  1.6390e+07   6.74e-34
  1.6965e+07   3.92e-34
  1.7559e+07   2.19e-34
  1.8175e+07   1.16e-34
  1.8812e+07   5.81e-35
  1.9471e+07   2.77e-35
  2.0153e+07   1.22e-35
  2.0859e+07   4.98e-36
  2.1590e+07   1.86e-36
  2.2347e+07   6.25e-37
  2.3130e+07   1.85e-37
  2.3941e+07   4.79e-38
  2.4780e+07   1.05e-38
  2.5648e+07   1.91e-39
  2.6547e+07   2.83e-40
  2.7477e+07   3.33e-41
  2.8440e+07   2.93e-42
