#  E [MeV]   Flux [# cm^{-2} s^{-1}  MeV^{-1}]
  3.0000e+04   2.09e-25
  3.1232e+04   2.00e-25
  3.2514e+04   1.91e-25
  3.3849e+04   1.83e-25
  3.5238e+04   1.75e-25
  3.6685e+04   1.67e-25
  3.8191e+04   1.59e-25
  3.9759e+04   1.52e-25
  4.1391e+04   1.46e-25
  4.3090e+04   1.39e-25
  4.4859e+04   1.33e-25
  4.6701e+04   1.27e-25
  4.8618e+04   1.21e-25
  5.0614e+04   1.16e-25
  5.2692e+04   1.11e-25
  5.4855e+04   1.06e-25
  5.7107e+04   1.01e-25
  5.9451e+04   9.62e-26
  6.1892e+04   9.18e-26
  6.4433e+04   8.77e-26
  6.7078e+04   8.37e-26
  6.9832e+04   7.98e-26
  7.2699e+04   7.62e-26
  7.5683e+04   7.27e-26
  7.8790e+04   6.94e-26
  8.2025e+04   6.62e-26
  8.5392e+04   6.31e-26
  8.8898e+04   6.02e-26
  9.2547e+04   5.74e-26
  9.6347e+04   5.47e-26
  1.0030e+05   5.22e-26
  1.0442e+05   4.97e-26
  1.0871e+05   4.74e-26
  1.1317e+05   4.52e-26
  1.1782e+05   4.31e-26
  1.2265e+05   4.10e-26
  1.2769e+05   3.91e-26
  1.3293e+05   3.72e-26
  1.3839e+05   3.55e-26
  1.4407e+05   3.38e-26
  1.4998e+05   3.21e-26
  1.5614e+05   3.06e-26
  1.6255e+05   2.91e-26
  1.6922e+05   2.77e-26
  1.7617e+05   2.63e-26
  1.8340e+05   2.50e-26
  1.9093e+05   2.38e-26
  1.9877e+05   2.26e-26
  2.0693e+05   2.15e-26
  2.1543e+05   2.04e-26
  2.2427e+05   1.94e-26
  2.3348e+05   1.84e-26
  2.4306e+05   1.75e-26
  2.5304e+05   1.66e-26
  2.6343e+05   1.57e-26
  2.7424e+05   1.49e-26
  2.8550e+05   1.42e-26
  2.9722e+05   1.34e-26
  3.0942e+05   1.27e-26
  3.2213e+05   1.20e-26
  3.3535e+05   1.14e-26
  3.4912e+05   1.08e-26
  3.6345e+05   1.02e-26
  3.7837e+05   9.64e-27
  3.9390e+05   9.11e-27
  4.1008e+05   8.61e-27
  4.2691e+05   8.13e-27
  4.4444e+05   7.67e-27
  4.6268e+05   7.24e-27
  4.8168e+05   6.83e-27
  5.0145e+05   6.44e-27
  5.2204e+05   6.07e-27
  5.4347e+05   5.71e-27
  5.6578e+05   5.38e-27
  5.8901e+05   5.06e-27
  6.1319e+05   4.76e-27
  6.3836e+05   4.47e-27
  6.6457e+05   4.20e-27
  6.9185e+05   3.94e-27
  7.2025e+05   3.70e-27
  7.4982e+05   3.47e-27
  7.8061e+05   3.25e-27
  8.1265e+05   3.05e-27
  8.4601e+05   2.86e-27
  8.8075e+05   2.67e-27
  9.1690e+05   2.50e-27
  9.5455e+05   2.34e-27
  9.9373e+05   2.19e-27
  1.0345e+06   2.05e-27
  1.0770e+06   1.91e-27
  1.1212e+06   1.79e-27
  1.1672e+06   1.67e-27
  1.2152e+06   1.56e-27
  1.2650e+06   1.45e-27
  1.3170e+06   1.35e-27
  1.3711e+06   1.26e-27
  1.4273e+06   1.18e-27
  1.4859e+06   1.10e-27
  1.5469e+06   1.02e-27
  1.6104e+06   9.49e-28
  1.6766e+06   8.83e-28
  1.7454e+06   8.20e-28
  1.8170e+06   7.63e-28
  1.8916e+06   7.08e-28
  1.9693e+06   6.57e-28
  2.0501e+06   6.10e-28
  2.1343e+06   5.66e-28
  2.2219e+06   5.25e-28
  2.3131e+06   4.86e-28
  2.4081e+06   4.50e-28
  2.5070e+06   4.16e-28
  2.6099e+06   3.85e-28
  2.7170e+06   3.55e-28
  2.8286e+06   3.28e-28
  2.9447e+06   3.03e-28
  3.0656e+06   2.79e-28
  3.1914e+06   2.57e-28
  3.3225e+06   2.37e-28
  3.4589e+06   2.18e-28
  3.6008e+06   2.00e-28
  3.7487e+06   1.84e-28
  3.9026e+06   1.69e-28
  4.0628e+06   1.55e-28
  4.2296e+06   1.42e-28
  4.4032e+06   1.30e-28
  4.5840e+06   1.19e-28
  4.7722e+06   1.09e-28
  4.9681e+06   9.91e-29
  5.1720e+06   9.05e-29
  5.3844e+06   8.24e-29
  5.6054e+06   7.49e-29
  5.8355e+06   6.81e-29
  6.0751e+06   6.18e-29
  6.3245e+06   5.60e-29
  6.5841e+06   5.08e-29
  6.8544e+06   4.59e-29
  7.1358e+06   4.14e-29
  7.4288e+06   3.74e-29
  7.7338e+06   3.36e-29
  8.0513e+06   3.03e-29
  8.3818e+06   2.72e-29
  8.7259e+06   2.43e-29
  9.0841e+06   2.18e-29
  9.4571e+06   1.95e-29
  9.8453e+06   1.73e-29
  1.0249e+07   1.54e-29
  1.0670e+07   1.37e-29
  1.1108e+07   1.21e-29
  1.1564e+07   1.07e-29
  1.2039e+07   9.42e-30
  1.2533e+07   8.25e-30
  1.3048e+07   7.24e-30
  1.3584e+07   6.31e-30
  1.4141e+07   5.48e-30
  1.4722e+07   4.76e-30
  1.5326e+07   4.09e-30
  1.5955e+07   3.51e-30
  1.6610e+07   3.00e-30
  1.7292e+07   2.54e-30
  1.8002e+07   2.14e-30
  1.8741e+07   1.79e-30
  1.9511e+07   1.48e-30
  2.0312e+07   1.21e-30
  2.1145e+07   9.84e-31
  2.2013e+07   7.84e-31
  2.2917e+07   6.19e-31
  2.3858e+07   4.79e-31
  2.4837e+07   3.61e-31
  2.5857e+07   2.68e-31
  2.6919e+07   1.92e-31
  2.8024e+07   1.32e-31
  2.9174e+07   8.74e-32
  3.0372e+07   5.47e-32
  3.1619e+07   3.20e-32
  3.2917e+07   1.74e-32
  3.4268e+07   8.50e-33
  3.5675e+07   3.68e-33
  3.7140e+07   1.37e-33
  3.8664e+07   4.16e-34
  4.0252e+07   9.86e-35
  4.1904e+07   1.70e-35
  4.3624e+07   1.91e-36
  4.5415e+07   1.25e-37
  4.7280e+07   4.00e-39
  4.9221e+07   4.87e-41
  5.1241e+07   1.66e-43
  5.3345e+07   9.81e-47
  5.5535e+07   5.27e-51
  5.7815e+07   1.04e-56
  6.0188e+07   1.92e-64
  6.2659e+07   4.31e-71
  6.5232e+07   4.49e-71
  6.7910e+07   4.65e-71
  7.0698e+07   4.89e-71
  7.3600e+07   5.53e-71
  7.6621e+07   6.11e-71
  7.9767e+07   7.42e-71
  8.3042e+07   1.02e-70
  8.6451e+07   1.27e-70
  9.0000e+07   1.68e-70
