#  E [MeV]   Flux [# cm^{-2} s^{-1}  MeV^{-1}]
  3.0000e+04   3.62e-25
  3.1232e+04   3.46e-25
  3.2514e+04   3.30e-25
  3.3849e+04   3.14e-25
  3.5238e+04   3.00e-25
  3.6685e+04   2.86e-25
  3.8191e+04   2.72e-25
  3.9759e+04   2.59e-25
  4.1391e+04   2.47e-25
  4.3090e+04   2.35e-25
  4.4859e+04   2.24e-25
  4.6701e+04   2.13e-25
  4.8618e+04   2.03e-25
  5.0614e+04   1.93e-25
  5.2692e+04   1.84e-25
  5.4855e+04   1.75e-25
  5.7107e+04   1.67e-25
  5.9451e+04   1.58e-25
  6.1892e+04   1.51e-25
  6.4433e+04   1.43e-25
  6.7078e+04   1.36e-25
  6.9832e+04   1.29e-25
  7.2699e+04   1.23e-25
  7.5683e+04   1.17e-25
  7.8790e+04   1.11e-25
  8.2025e+04   1.05e-25
  8.5392e+04   1.00e-25
  8.8898e+04   9.49e-26
  9.2547e+04   9.00e-26
  9.6347e+04   8.54e-26
  1.0030e+05   8.10e-26
  1.0442e+05   7.68e-26
  1.0871e+05   7.28e-26
  1.1317e+05   6.90e-26
  1.1782e+05   6.54e-26
  1.2265e+05   6.19e-26
  1.2769e+05   5.86e-26
  1.3293e+05   5.55e-26
  1.3839e+05   5.25e-26
  1.4407e+05   4.97e-26
  1.4998e+05   4.70e-26
  1.5614e+05   4.44e-26
  1.6255e+05   4.19e-26
  1.6922e+05   3.96e-26
  1.7617e+05   3.74e-26
  1.8340e+05   3.53e-26
  1.9093e+05   3.33e-26
  1.9877e+05   3.14e-26
  2.0693e+05   2.95e-26
  2.1543e+05   2.78e-26
  2.2427e+05   2.62e-26
  2.3348e+05   2.46e-26
  2.4306e+05   2.32e-26
  2.5304e+05   2.17e-26
  2.6343e+05   2.04e-26
  2.7424e+05   1.92e-26
  2.8550e+05   1.80e-26
  2.9722e+05   1.68e-26
  3.0942e+05   1.57e-26
  3.2213e+05   1.47e-26
  3.3535e+05   1.38e-26
  3.4912e+05   1.28e-26
  3.6345e+05   1.20e-26
  3.7837e+05   1.12e-26
  3.9390e+05   1.04e-26
  4.1008e+05   9.68e-27
  4.2691e+05   9.00e-27
  4.4444e+05   8.36e-27
  4.6268e+05   7.76e-27
  4.8168e+05   7.20e-27
  5.0145e+05   6.67e-27
  5.2204e+05   6.17e-27
  5.4347e+05   5.71e-27
  5.6578e+05   5.27e-27
  5.8901e+05   4.87e-27
  6.1319e+05   4.49e-27
  6.3836e+05   4.14e-27
  6.6457e+05   3.82e-27
  6.9185e+05   3.51e-27
  7.2025e+05   3.23e-27
  7.4982e+05   2.97e-27
  7.8061e+05   2.73e-27
  8.1265e+05   2.51e-27
  8.4601e+05   2.30e-27
  8.8075e+05   2.12e-27
  9.1690e+05   1.94e-27
  9.5455e+05   1.78e-27
  9.9373e+05   1.63e-27
  1.0345e+06   1.50e-27
  1.0770e+06   1.37e-27
  1.1212e+06   1.26e-27
  1.1672e+06   1.16e-27
  1.2152e+06   1.06e-27
  1.2650e+06   9.72e-28
  1.3170e+06   8.91e-28
  1.3711e+06   8.17e-28
  1.4273e+06   7.49e-28
  1.4859e+06   6.87e-28
  1.5469e+06   6.30e-28
  1.6104e+06   5.77e-28
  1.6766e+06   5.28e-28
  1.7454e+06   4.84e-28
  1.8170e+06   4.43e-28
  1.8916e+06   4.06e-28
  1.9693e+06   3.72e-28
  2.0501e+06   3.40e-28
  2.1343e+06   3.11e-28
  2.2219e+06   2.84e-28
  2.3131e+06   2.59e-28
  2.4081e+06   2.36e-28
  2.5070e+06   2.15e-28
  2.6099e+06   1.96e-28
  2.7170e+06   1.78e-28
  2.8286e+06   1.62e-28
  2.9447e+06   1.47e-28
  3.0656e+06   1.33e-28
  3.1914e+06   1.20e-28
  3.3225e+06   1.09e-28
  3.4589e+06   9.82e-29
  3.6008e+06   8.85e-29
  3.7487e+06   7.94e-29
  3.9026e+06   7.13e-29
  4.0628e+06   6.39e-29
  4.2296e+06   5.70e-29
  4.4032e+06   5.09e-29
  4.5840e+06   4.52e-29
  4.7722e+06   4.00e-29
  4.9681e+06   3.54e-29
  5.1720e+06   3.12e-29
  5.3844e+06   2.74e-29
  5.6054e+06   2.40e-29
  5.8355e+06   2.09e-29
  6.0751e+06   1.82e-29
  6.3245e+06   1.58e-29
  6.5841e+06   1.36e-29
  6.8544e+06   1.17e-29
  7.1358e+06   9.97e-30
  7.4288e+06   8.46e-30
  7.7338e+06   7.16e-30
  8.0513e+06   6.02e-30
  8.3818e+06   5.02e-30
  8.7259e+06   4.17e-30
  9.0841e+06   3.43e-30
  9.4571e+06   2.79e-30
  9.8453e+06   2.26e-30
  1.0249e+07   1.81e-30
  1.0670e+07   1.43e-30
  1.1108e+07   1.13e-30
  1.1564e+07   8.73e-31
  1.2039e+07   6.64e-31
  1.2533e+07   5.03e-31
  1.3048e+07   3.71e-31
  1.3584e+07   2.69e-31
  1.4141e+07   1.92e-31
  1.4722e+07   1.33e-31
  1.5326e+07   9.02e-32
  1.5955e+07   5.96e-32
  1.6610e+07   3.77e-32
  1.7292e+07   2.31e-32
  1.8002e+07   1.36e-32
  1.8741e+07   7.53e-33
  1.9511e+07   3.99e-33
  2.0312e+07   1.98e-33
  2.1145e+07   8.99e-34
  2.2013e+07   3.80e-34
  2.2917e+07   1.44e-34
  2.3858e+07   4.79e-35
  2.4837e+07   1.41e-35
  2.5857e+07   3.46e-36
  2.6919e+07   6.90e-37
  2.8024e+07   1.10e-37
  2.9174e+07   1.29e-38
  3.0372e+07   1.06e-39
  3.1619e+07   5.69e-41
  3.2917e+07   1.78e-42
  3.4268e+07   2.88e-44
  3.5675e+07   2.07e-46
  3.7140e+07   5.26e-49
  3.8664e+07   3.65e-52
  4.0252e+07   4.81e-56
  4.1904e+07   7.43e-61
  4.3624e+07   7.24e-67
  4.5415e+07   9.41e-72
  4.7280e+07   8.45e-72
  4.9221e+07   7.68e-72
  5.1241e+07   6.97e-72
  5.3345e+07   6.31e-72
  5.5535e+07   5.77e-72
  5.7815e+07   5.26e-72
  6.0188e+07   4.79e-72
  6.2659e+07   4.40e-72
  6.5232e+07   4.03e-72
  6.7910e+07   3.68e-72
  7.0698e+07   3.35e-72
  7.3600e+07   3.04e-72
  7.6621e+07   2.74e-72
  7.9767e+07   2.46e-72
  8.3042e+07   2.19e-72
  8.6451e+07   1.97e-72
  9.0000e+07   1.78e-72
